Time,Amplitude
0.0,149.0
0.0006666666666666666,0.000147
0.0013333333333333333,0.000176
0.002,0.000167
0.0026666666666666666,0.00011
0.0033333333333333335,6.2e-05
0.004,-3.6e-05
0.004666666666666667,-0.000145
0.005333333333333333,-0.000222
0.006,-0.0003
0.006666666666666667,-0.000375
0.007333333333333333,-0.000424
0.008,-0.000429
0.008666666666666666,-0.000422
0.009333333333333334,-0.000383
0.01,-0.000306
0.010666666666666666,-0.000252
0.011333333333333334,-0.000188
0.012,-0.000104
0.012666666666666666,-6e-06
0.013333333333333334,6.7e-05
0.014,0.000133
0.014666666666666666,0.000167
0.015333333333333332,0.0002
0.016,0.000236
0.016666666666666666,0.000241
0.017333333333333333,0.000217
0.018,0.000191
0.018666666666666668,0.00015
0.019333333333333334,0.000116
0.02,0.000125
0.020666666666666667,9.8e-05
0.021333333333333333,4.3e-05
0.022,2.5e-05
0.02266666666666667,1.4e-05
0.023333333333333334,4e-06
0.024,-3.6e-05
0.024666666666666667,-0.000115
0.025333333333333333,-0.000192
0.026,-0.000262
0.02666666666666667,-0.000336
0.027333333333333334,-0.000377
0.028,-0.000391
0.028666666666666667,-0.000394
0.029333333333333333,-0.00037
0.03,-0.000296
0.030666666666666665,-0.000253
0.03133333333333333,-0.000189
0.032,-0.000114
0.03266666666666666,-3.2e-05
0.03333333333333333,5.6e-05
0.034,0.000112
0.034666666666666665,0.000128
0.035333333333333335,0.000134
0.036,0.000154
0.03666666666666667,0.000183
0.037333333333333336,0.0002
0.038,0.000174
0.03866666666666667,8.9e-05
0.03933333333333333,4.5e-05
0.04,7.2e-05
0.04066666666666666,5.2e-05
0.04133333333333333,5e-05
0.042,3.6e-05
0.042666666666666665,1.9e-05
0.043333333333333335,1e-05
0.044,-6e-05
0.04466666666666667,-9.6e-05
0.04533333333333334,-0.000171
0.046,-0.000285
0.04666666666666667,-0.000381
0.04733333333333333,-0.000428
0.048,-0.000428
0.048666666666666664,-0.000457
0.04933333333333333,-0.000449
0.05,-0.000378
0.050666666666666665,-0.000323
0.051333333333333335,-0.000251
0.052,-0.000157
0.05266666666666667,-7e-05
0.05333333333333334,1.5e-05
0.054,6.1e-05
0.05466666666666667,7.8e-05
0.05533333333333333,9.8e-05
0.056,0.000108
0.056666666666666664,8.3e-05
0.05733333333333333,0.000115
0.058,0.000172
0.058666666666666666,0.000153
0.059333333333333335,0.000105
0.06,0.000132
0.06066666666666667,0.000142
0.06133333333333333,9.8e-05
0.062,5.9e-05
0.06266666666666666,3.9e-05
0.06333333333333334,-1e-05
0.064,-9.6e-05
0.06466666666666666,-0.000181
0.06533333333333333,-0.000236
0.066,-0.000322
0.06666666666666667,-0.000402
0.06733333333333333,-0.00044
0.068,-0.000449
0.06866666666666667,-0.00045
0.06933333333333333,-0.000445
0.07,-0.000366
0.07066666666666667,-0.0003
0.07133333333333333,-0.00021
0.072,-0.000121
0.07266666666666667,-7.4e-05
0.07333333333333333,-2.1e-05
0.074,2.6e-05
0.07466666666666667,5.4e-05
0.07533333333333334,7.3e-05
0.076,9.4e-05
0.07666666666666666,0.000112
0.07733333333333334,0.000133
0.078,0.000145
0.07866666666666666,0.000138
0.07933333333333334,0.000139
0.08,0.000198
0.08066666666666666,0.000208
0.08133333333333333,0.000178
0.082,0.000114
0.08266666666666667,7.1e-05
0.08333333333333333,2.7e-05
0.084,-6.8e-05
0.08466666666666667,-0.000161
0.08533333333333333,-0.000254
0.086,-0.00035
0.08666666666666667,-0.000414
0.08733333333333333,-0.000452
0.088,-0.00046
0.08866666666666667,-0.000475
0.08933333333333333,-0.000453
0.09,-0.000388
0.09066666666666667,-0.000328
0.09133333333333334,-0.000231
0.092,-0.000128
0.09266666666666666,-1.6e-05
0.09333333333333334,7.9e-05
0.094,0.000113
0.09466666666666666,0.000131
0.09533333333333334,0.000156
0.096,0.000179
0.09666666666666666,0.000193
0.09733333333333333,0.000192
0.098,0.000176
0.09866666666666667,0.00014
0.09933333333333333,0.000125
0.1,0.000179
0.10066666666666667,0.000186
0.10133333333333333,0.000141
0.102,9.2e-05
0.10266666666666667,5.1e-05
0.10333333333333333,3.1e-05
0.104,-2.9e-05
0.10466666666666667,-9.3e-05
0.10533333333333333,-0.000161
0.106,-0.000232
0.10666666666666667,-0.000319
0.10733333333333334,-0.000388
0.108,-0.000414
0.10866666666666666,-0.000443
0.10933333333333334,-0.000452
0.11,-0.000364
0.11066666666666666,-0.000308
0.11133333333333334,-0.000223
0.112,-0.000109
0.11266666666666666,-1.6e-05
0.11333333333333333,5.9e-05
0.114,0.000125
0.11466666666666667,0.00017
0.11533333333333333,0.000209
0.116,0.000208
0.11666666666666667,0.000185
0.11733333333333333,0.000183
0.118,0.000174
0.11866666666666667,0.000149
0.11933333333333333,0.000154
0.12,0.000192
0.12066666666666667,0.000175
0.12133333333333333,0.000142
0.122,9.7e-05
0.12266666666666666,5.6e-05
0.12333333333333334,5.9e-05
0.124,2.8e-05
0.12466666666666666,-3.1e-05
0.12533333333333332,-0.000139
0.126,-0.00024
0.12666666666666668,-0.000333
0.12733333333333333,-0.000361
0.128,-0.000349
0.12866666666666668,-0.00038
0.12933333333333333,-0.000412
0.13,-0.000347
0.13066666666666665,-0.000265
0.13133333333333333,-0.00019
0.132,-0.00012
0.13266666666666665,-6.6e-05
0.13333333333333333,1.8e-05
0.134,8.2e-05
0.13466666666666666,0.000135
0.13533333333333333,0.000154
0.136,0.000164
0.13666666666666666,0.000177
0.13733333333333334,0.000191
0.138,0.000193
0.13866666666666666,0.00015
0.13933333333333334,0.000141
0.14,0.000184
0.14066666666666666,0.000207
0.14133333333333334,0.000203
0.142,0.000157
0.14266666666666666,0.000125
0.14333333333333334,9.2e-05
0.144,1.1e-05
0.14466666666666667,-9.2e-05
0.14533333333333334,-0.000184
0.146,-0.000301
0.14666666666666667,-0.000378
0.14733333333333334,-0.000427
0.148,-0.000435
0.14866666666666667,-0.000463
0.14933333333333335,-0.000445
0.15,-0.000362
0.15066666666666667,-0.000289
0.15133333333333332,-0.000203
0.152,-9.8e-05
0.15266666666666667,-4e-06
0.15333333333333332,6.3e-05
0.154,0.000115
0.15466666666666667,0.000168
0.15533333333333332,0.000213
0.156,0.000238
0.15666666666666668,0.000231
0.15733333333333333,0.000225
0.158,0.000191
0.15866666666666668,0.000163
0.15933333333333333,0.00016
0.16,0.000218
0.16066666666666668,0.000211
0.16133333333333333,0.000173
0.162,0.000139
0.16266666666666665,0.000123
0.16333333333333333,6.6e-05
0.164,-5.2e-05
0.16466666666666666,-0.000133
0.16533333333333333,-0.000195
0.166,-0.00029
0.16666666666666666,-0.000383
0.16733333333333333,-0.000435
0.168,-0.000432
0.16866666666666666,-0.000477
0.16933333333333334,-0.000466
0.17,-0.000386
0.17066666666666666,-0.0003
0.17133333333333334,-0.000214
0.172,-0.000132
0.17266666666666666,-6.5e-05
0.17333333333333334,2.8e-05
0.174,8.7e-05
0.17466666666666666,0.000128
0.17533333333333334,0.000161
0.176,0.000174
0.17666666666666667,0.000172
0.17733333333333334,0.00017
0.178,0.000174
0.17866666666666667,0.000154
0.17933333333333334,0.000157
0.18,0.000224
0.18066666666666667,0.000242
0.18133333333333335,0.000211
0.182,0.000175
0.18266666666666667,0.000119
0.18333333333333332,3.1e-05
0.184,-5.1e-05
0.18466666666666667,-0.000125
0.18533333333333332,-0.000206
0.186,-0.00028
0.18666666666666668,-0.000355
0.18733333333333332,-0.000393
0.188,-0.000406
0.18866666666666668,-0.000431
0.18933333333333333,-0.000433
0.19,-0.000377
0.19066666666666668,-0.000325
0.19133333333333333,-0.000242
0.192,-0.000158
0.19266666666666668,-8.3e-05
0.19333333333333333,-1e-06
0.194,6.3e-05
0.19466666666666665,7.7e-05
0.19533333333333333,8.6e-05
0.196,0.000112
0.19666666666666666,0.000128
0.19733333333333333,0.000147
0.198,0.000151
0.19866666666666666,0.000152
0.19933333333333333,0.000159
0.2,0.000192
0.20066666666666666,0.000166
0.20133333333333334,0.000137
0.202,0.000112
0.20266666666666666,7.2e-05
0.20333333333333334,3.4e-05
0.204,-3e-05
0.20466666666666666,-8.5e-05
0.20533333333333334,-0.000168
0.206,-0.000278
0.20666666666666667,-0.000355
0.20733333333333334,-0.000415
0.208,-0.000435
0.20866666666666667,-0.000459
0.20933333333333334,-0.000441
0.21,-0.000383
0.21066666666666667,-0.000339
0.21133333333333335,-0.000281
0.212,-0.000178
0.21266666666666667,-5.9e-05
0.21333333333333335,2.8e-05
0.214,8.5e-05
0.21466666666666667,0.000139
0.21533333333333332,0.000178
0.216,0.000206
0.21666666666666667,0.000202
0.21733333333333332,0.000187
0.218,0.000141
0.21866666666666668,0.000117
0.21933333333333332,0.000117
0.22,0.000166
0.22066666666666668,0.000174
0.22133333333333333,0.000154
0.222,9.8e-05
0.22266666666666668,4e-05
0.22333333333333333,-1.6e-05
0.224,-8.7e-05
0.22466666666666665,-0.000162
0.22533333333333333,-0.000203
0.226,-0.000265
0.22666666666666666,-0.000329
0.22733333333333333,-0.000349
0.228,-0.000362
0.22866666666666666,-0.00041
0.22933333333333333,-0.000418
0.23,-0.000378
0.23066666666666666,-0.000315
0.23133333333333334,-0.000231
0.232,-0.000128
0.23266666666666666,-3.8e-05
0.23333333333333334,4.4e-05
0.234,0.000136
0.23466666666666666,0.000203
0.23533333333333334,0.000269
0.236,0.000292
0.23666666666666666,0.000259
0.23733333333333334,0.000235
0.238,0.000216
0.23866666666666667,0.000159
0.23933333333333334,0.000119
0.24,0.000168
0.24066666666666667,0.000181
0.24133333333333334,0.000158
0.242,0.00011
0.24266666666666667,5.8e-05
0.24333333333333335,2.4e-05
0.244,-4e-05
0.24466666666666667,-0.000139
0.24533333333333332,-0.000247
0.246,-0.000339
0.24666666666666667,-0.000419
0.24733333333333332,-0.000439
0.248,-0.000439
0.24866666666666667,-0.00043
0.24933333333333332,-0.000411
0.25,-0.000366
0.25066666666666665,-0.000304
0.25133333333333335,-0.000235
0.252,-0.000136
0.25266666666666665,-4.1e-05
0.25333333333333335,4.2e-05
0.254,9.8e-05
0.25466666666666665,0.000161
0.25533333333333336,0.000213
0.256,0.000213
0.25666666666666665,0.000183
0.25733333333333336,0.000167
0.258,0.000138
0.25866666666666666,0.000111
0.25933333333333336,0.000112
0.26,0.000178
0.26066666666666666,0.000181
0.2613333333333333,0.000153
0.262,0.000128
0.26266666666666666,0.00011
0.2633333333333333,9.3e-05
0.264,2.9e-05
0.26466666666666666,-5.3e-05
0.2653333333333333,-0.000163
0.266,-0.000265
0.26666666666666666,-0.00035
0.2673333333333333,-0.000386
0.268,-0.000375
0.26866666666666666,-0.000391
0.2693333333333333,-0.000386
0.27,-0.000348
0.27066666666666667,-0.000294
0.2713333333333333,-0.000214
0.272,-0.000132
0.27266666666666667,-6.9e-05
0.2733333333333333,9e-06
0.274,5.9e-05
0.27466666666666667,8.6e-05
0.2753333333333333,9.8e-05
0.276,0.0001
0.27666666666666667,0.000105
0.2773333333333333,0.000122
0.278,0.000129
0.2786666666666667,0.000107
0.2793333333333333,8.7e-05
0.28,0.000159
0.2806666666666667,0.000205
0.2813333333333333,0.000186
0.282,0.000136
0.2826666666666667,0.000112
0.2833333333333333,7.4e-05
0.284,6e-06
0.2846666666666667,-7.1e-05
0.2853333333333333,-0.000157
0.286,-0.000258
0.2866666666666667,-0.000347
0.28733333333333333,-0.000397
0.288,-0.000399
0.2886666666666667,-0.000397
0.28933333333333333,-0.000399
0.29,-0.000343
0.2906666666666667,-0.000267
0.29133333333333333,-0.00019
0.292,-0.000112
0.2926666666666667,-4.1e-05
0.29333333333333333,1e-05
0.294,6e-05
0.2946666666666667,0.000122
0.29533333333333334,0.000173
0.296,0.000187
0.2966666666666667,0.000196
0.29733333333333334,0.000222
0.298,0.000213
0.2986666666666667,0.000186
0.29933333333333334,0.00015
0.3,0.000182
0.3006666666666667,0.00017
0.30133333333333334,0.000139
0.302,0.000108
0.30266666666666664,8.6e-05
0.30333333333333334,5e-05
0.304,-3.3e-05
0.30466666666666664,-0.000137
0.30533333333333335,-0.000214
0.306,-0.000307
0.30666666666666664,-0.000378
0.30733333333333335,-0.000436
0.308,-0.000431
0.30866666666666664,-0.000439
0.30933333333333335,-0.000468
0.31,-0.000441
0.31066666666666665,-0.000386
0.31133333333333335,-0.000328
0.312,-0.000238
0.31266666666666665,-0.000132
0.31333333333333335,-6.5e-05
0.314,9e-06
0.31466666666666665,7.6e-05
0.31533333333333335,0.000133
0.316,0.000167
0.31666666666666665,0.000197
0.31733333333333336,0.000218
0.318,0.000219
0.31866666666666665,0.000181
0.31933333333333336,0.000167
0.32,0.000214
0.32066666666666666,0.000235
0.32133333333333336,0.000208
0.322,0.000145
0.32266666666666666,6.6e-05
0.3233333333333333,3.4e-05
0.324,9e-06
0.32466666666666666,-4.9e-05
0.3253333333333333,-0.000141
0.326,-0.000246
0.32666666666666666,-0.000321
0.3273333333333333,-0.000363
0.328,-0.000411
0.32866666666666666,-0.000447
0.3293333333333333,-0.000475
0.33,-0.000463
0.33066666666666666,-0.000446
0.3313333333333333,-0.000384
0.332,-0.000265
0.33266666666666667,-0.000153
0.3333333333333333,-1.7e-05
0.334,0.000158
0.33466666666666667,0.000274
0.3353333333333333,0.00028
0.336,0.000237
0.33666666666666667,0.0002
0.3373333333333333,0.000202
0.338,0.000192
0.33866666666666667,0.000131
0.3393333333333333,7.9e-05
0.34,0.000155
0.3406666666666667,0.000241
0.3413333333333333,0.000277
0.342,0.000256
0.3426666666666667,0.000216
0.3433333333333333,0.000171
0.344,8.6e-05
0.3446666666666667,-4.1e-05
0.3453333333333333,-0.00016
0.346,-0.000245
0.3466666666666667,-0.000293
0.3473333333333333,-0.000377
0.348,-0.000424
0.3486666666666667,-0.000459
0.34933333333333333,-0.000464
0.35,-0.000421
0.3506666666666667,-0.000338
0.35133333333333333,-0.000282
0.352,-0.000205
0.3526666666666667,-0.000119
0.35333333333333333,-3.7e-05
0.354,5.8e-05
0.3546666666666667,0.000116
0.35533333333333333,0.000156
0.356,0.000181
0.3566666666666667,0.000155
0.35733333333333334,0.000114
0.358,9.8e-05
0.3586666666666667,7.9e-05
0.35933333333333334,7.7e-05
0.36,0.00016
0.3606666666666667,0.000222
0.36133333333333334,0.000197
0.362,0.000123
0.3626666666666667,6.2e-05
0.36333333333333334,2.9e-05
0.364,-3.8e-05
0.36466666666666664,-0.000173
0.36533333333333334,-0.000296
0.366,-0.00034
0.36666666666666664,-0.00038
0.36733333333333335,-0.000419
0.368,-0.000457
0.36866666666666664,-0.000519
0.36933333333333335,-0.000559
0.37,-0.00051
0.37066666666666664,-0.000428
0.37133333333333335,-0.000313
0.372,-0.000187
0.37266666666666665,-7.4e-05
0.37333333333333335,4.7e-05
0.374,0.00012
0.37466666666666665,0.000131
0.37533333333333335,0.000172
0.376,0.000225
0.37666666666666665,0.000257
0.37733333333333335,0.000246
0.378,0.000228
0.37866666666666665,0.000216
0.37933333333333336,0.000153
0.38,0.00016
0.38066666666666665,0.000152
0.38133333333333336,9e-05
0.382,-2e-06
0.38266666666666665,-9e-05
0.38333333333333336,-0.000119
0.384,-0.000159
0.38466666666666666,-0.000228
0.38533333333333336,-0.000311
0.386,-0.000373
0.38666666666666666,-0.00041
0.3873333333333333,-0.000398
0.388,-0.000367
0.38866666666666666,-0.000342
0.3893333333333333,-0.000361
0.39,-0.000351
0.39066666666666666,-0.000299
0.3913333333333333,-0.000254
0.392,-0.000196
0.39266666666666666,-9.8e-05
0.3933333333333333,3.8e-05
0.394,0.000127
0.39466666666666667,0.00017
0.3953333333333333,0.000193
0.396,0.000257
0.39666666666666667,0.000285
0.3973333333333333,0.00032
0.398,0.000344
0.39866666666666667,0.000262
0.3993333333333333,0.000169
0.4,0.000162
0.40066666666666667,0.000141
0.4013333333333333,7.6e-05
0.402,1.5e-05
0.4026666666666667,-3.5e-05
0.4033333333333333,-7.9e-05
0.404,-0.00012
0.4046666666666667,-0.000161
0.4053333333333333,-0.000196
0.406,-0.000258
0.4066666666666667,-0.000352
0.4073333333333333,-0.000419
0.408,-0.000461
0.4086666666666667,-0.000483
0.4093333333333333,-0.000445
0.41,-0.000355
0.4106666666666667,-0.000314
0.41133333333333333,-0.000272
0.412,-0.000199
0.4126666666666667,-9e-05
0.41333333333333333,5e-05
0.414,0.000131
0.4146666666666667,0.000137
0.41533333333333333,0.000122
0.416,0.000172
0.4166666666666667,0.000265
0.41733333333333333,0.000307
0.418,0.000282
0.4186666666666667,0.000225
0.41933333333333334,0.000146
0.42,0.00015
0.4206666666666667,0.000181
0.42133333333333334,0.000165
0.422,0.000129
0.4226666666666667,7.4e-05
0.42333333333333334,3.2e-05
0.424,0.0
0.4246666666666667,-0.000116
0.42533333333333334,-0.000288
0.426,-0.000365
0.4266666666666667,-0.000399
0.42733333333333334,-0.000411
0.428,-0.000431
0.42866666666666664,-0.000477
0.42933333333333334,-0.000514
0.43,-0.000466
0.43066666666666664,-0.000373
0.43133333333333335,-0.000281
0.432,-0.00016
0.43266666666666664,-3e-06
0.43333333333333335,9.2e-05
0.434,0.000148
0.43466666666666665,0.00017
0.43533333333333335,0.000208
0.436,0.000227
0.43666666666666665,0.00026
0.43733333333333335,0.000297
0.438,0.000273
0.43866666666666665,0.000197
0.43933333333333335,0.000117
0.44,0.000146
0.44066666666666665,0.000177
0.44133333333333336,0.000182
0.442,0.000182
0.44266666666666665,0.000161
0.44333333333333336,0.000133
0.444,7.8e-05
0.44466666666666665,-3.9e-05
0.44533333333333336,-0.000198
0.446,-0.000336
0.44666666666666666,-0.000408
0.44733333333333336,-0.000441
0.448,-0.000424
0.44866666666666666,-0.000423
0.4493333333333333,-0.000435
0.45,-0.000394
0.45066666666666666,-0.00032
0.4513333333333333,-0.000257
0.452,-0.000181
0.45266666666666666,-8.5e-05
0.4533333333333333,-2e-06
0.454,6.2e-05
0.45466666666666666,0.000114
0.4553333333333333,0.000158
0.456,0.000161
0.45666666666666667,0.000169
0.4573333333333333,0.00015
0.458,0.00017
0.45866666666666667,0.000177
0.4593333333333333,0.000173
0.46,0.000156
0.46066666666666667,9.7e-05
0.4613333333333333,6.6e-05
0.462,7.2e-05
0.46266666666666667,2.8e-05
0.4633333333333333,-2.4e-05
0.464,-3.5e-05
0.4646666666666667,-6.5e-05
0.4653333333333333,-0.000143
0.466,-0.00028
0.4666666666666667,-0.00037
0.4673333333333333,-0.000431
0.468,-0.000455
0.4686666666666667,-0.000446
0.4693333333333333,-0.000391
0.47,-0.000325
0.4706666666666667,-0.00027
0.4713333333333333,-0.000151
0.472,-4.9e-05
0.4726666666666667,-3.4e-05
0.47333333333333333,9e-06
0.474,7.2e-05
0.4746666666666667,0.000155
0.47533333333333333,0.000252
0.476,0.000313
0.4766666666666667,0.000337
0.47733333333333333,0.000297
0.478,0.000256
0.4786666666666667,0.000206
0.47933333333333333,0.00016
0.48,0.000215
0.4806666666666667,0.000266
0.48133333333333334,0.000202
0.482,0.000145
0.4826666666666667,7.3e-05
0.48333333333333334,2.6e-05
0.484,-2.3e-05
0.4846666666666667,-0.000134
0.48533333333333334,-0.000265
0.486,-0.00039
0.4866666666666667,-0.000455
0.48733333333333334,-0.000492
0.488,-0.000485
0.4886666666666667,-0.000475
0.48933333333333334,-0.000477
0.49,-0.000477
0.49066666666666664,-0.000414
0.49133333333333334,-0.000311
0.492,-0.000185
0.49266666666666664,-7.6e-05
0.49333333333333335,6.6e-05
0.494,0.000126
0.49466666666666664,0.000133
0.49533333333333335,0.000178
0.496,0.00022
0.49666666666666665,0.000257
0.49733333333333335,0.000268
0.498,0.000236
0.49866666666666665,0.000214
0.49933333333333335,0.000183
0.5,0.000169
0.5006666666666667,0.000169
0.5013333333333333,0.000151
0.502,0.000103
0.5026666666666667,3.9e-05
0.5033333333333333,8e-06
0.504,-4.9e-05
0.5046666666666667,-0.000161
0.5053333333333333,-0.000254
0.506,-0.000297
0.5066666666666667,-0.000354
0.5073333333333333,-0.000389
0.508,-0.000376
0.5086666666666667,-0.000372
0.5093333333333333,-0.00038
0.51,-0.000309
0.5106666666666667,-0.000222
0.5113333333333333,-0.000167
0.512,-0.000122
0.5126666666666667,-9.9e-05
0.5133333333333333,-8.3e-05
0.514,2e-06
0.5146666666666667,0.000139
0.5153333333333333,0.000208
0.516,0.000222
0.5166666666666667,0.000178
0.5173333333333333,0.000169
0.518,0.000203
0.5186666666666667,0.000197
0.5193333333333333,0.000159
0.52,0.000168
0.5206666666666667,0.00021
0.5213333333333333,0.000247
0.522,0.000236
0.5226666666666666,0.000173
0.5233333333333333,0.00012
0.524,5.9e-05
0.5246666666666666,-4.4e-05
0.5253333333333333,-0.000176
0.526,-0.000292
0.5266666666666666,-0.000371
0.5273333333333333,-0.000406
0.528,-0.000417
0.5286666666666666,-0.000425
0.5293333333333333,-0.000452
0.53,-0.000392
0.5306666666666666,-0.000297
0.5313333333333333,-0.000233
0.532,-0.000168
0.5326666666666666,-0.000165
0.5333333333333333,-0.000124
0.534,1e-06
0.5346666666666666,0.000109
0.5353333333333333,0.000167
0.536,0.000241
0.5366666666666666,0.00027
0.5373333333333333,0.000271
0.538,0.000305
0.5386666666666666,0.000285
0.5393333333333333,0.000232
0.54,0.0003
0.5406666666666666,0.000347
0.5413333333333333,0.000279
0.542,0.000206
0.5426666666666666,0.000138
0.5433333333333333,0.000125
0.544,0.000112
0.5446666666666666,4.1e-05
0.5453333333333333,-3e-05
0.546,-0.000118
0.5466666666666666,-0.00019
0.5473333333333333,-0.000276
0.548,-0.000356
0.5486666666666666,-0.000388
0.5493333333333333,-0.000364
0.55,-0.000303
0.5506666666666666,-0.000236
0.5513333333333333,-0.000179
0.552,-0.000102
0.5526666666666666,-4.1e-05
0.5533333333333333,-0.0
0.554,7.8e-05
0.5546666666666666,0.000156
0.5553333333333333,0.000193
0.556,0.000216
0.5566666666666666,0.000223
0.5573333333333333,0.00024
0.558,0.000269
0.5586666666666666,0.000268
0.5593333333333333,0.000223
0.56,0.000237
0.5606666666666666,0.000279
0.5613333333333334,0.000233
0.562,0.000197
0.5626666666666666,0.000165
0.5633333333333334,0.000139
0.564,0.000127
0.5646666666666667,5.4e-05
0.5653333333333334,-7.5e-05
0.566,-0.000176
0.5666666666666667,-0.000226
0.5673333333333334,-0.000279
0.568,-0.000311
0.5686666666666667,-0.000326
0.5693333333333334,-0.000366
0.57,-0.000393
0.5706666666666667,-0.000337
0.5713333333333334,-0.000273
0.572,-0.000154
0.5726666666666667,-2.4e-05
0.5733333333333334,0.0001
0.574,0.000174
0.5746666666666667,0.000203
0.5753333333333334,0.000241
0.576,0.000304
0.5766666666666667,0.000355
0.5773333333333334,0.000408
0.578,0.000421
0.5786666666666667,0.00041
0.5793333333333334,0.000353
0.58,0.000281
0.5806666666666667,0.000225
0.5813333333333334,0.000176
0.582,0.000203
0.5826666666666667,0.000246
0.5833333333333334,0.000241
0.584,0.000209
0.5846666666666667,0.000106
0.5853333333333334,-7.1e-05
0.586,-0.000212
0.5866666666666667,-0.000273
0.5873333333333334,-0.000326
0.588,-0.000355
0.5886666666666667,-0.000381
0.5893333333333334,-0.000463
0.59,-0.000461
0.5906666666666667,-0.00034
0.5913333333333334,-0.000138
0.592,8.1e-05
0.5926666666666667,0.000164
0.5933333333333334,0.000256
0.594,0.000346
0.5946666666666667,0.00029
0.5953333333333334,0.000249
0.596,0.000237
0.5966666666666667,0.000247
0.5973333333333334,0.000282
0.598,0.000266
0.5986666666666667,0.000272
0.5993333333333334,0.000233
0.6,0.000177
0.6006666666666667,0.000235
0.6013333333333334,0.000302
0.602,0.000288
0.6026666666666667,0.000232
0.6033333333333334,0.000183
0.604,0.000136
0.6046666666666667,4.1e-05
0.6053333333333333,-5.9e-05
0.606,-0.000148
0.6066666666666667,-0.000239
0.6073333333333333,-0.000294
0.608,-0.000316
0.6086666666666667,-0.000272
0.6093333333333333,-0.000312
0.61,-0.000338
0.6106666666666667,-0.000311
0.6113333333333333,-0.000211
0.612,-6.3e-05
0.6126666666666667,5.3e-05
0.6133333333333333,0.000135
0.614,0.00022
0.6146666666666667,0.0003
0.6153333333333333,0.000343
0.616,0.000359
0.6166666666666667,0.000371
0.6173333333333333,0.00036
0.618,0.000345
0.6186666666666667,0.000311
0.6193333333333333,0.000228
0.62,0.000287
0.6206666666666667,0.000334
0.6213333333333333,0.000252
0.622,0.000187
0.6226666666666667,0.000183
0.6233333333333333,0.000186
0.624,0.00015
0.6246666666666667,4.6e-05
0.6253333333333333,-5e-05
0.626,-0.000145
0.6266666666666667,-0.000214
0.6273333333333333,-0.000306
0.628,-0.000362
0.6286666666666667,-0.000399
0.6293333333333333,-0.000433
0.63,-0.000393
0.6306666666666667,-0.000254
0.6313333333333333,-0.000138
0.632,-2.8e-05
0.6326666666666667,4.9e-05
0.6333333333333333,9.6e-05
0.634,0.000193
0.6346666666666667,0.000242
0.6353333333333333,0.000255
0.636,0.00028
0.6366666666666667,0.00028
0.6373333333333333,0.000262
0.638,0.000279
0.6386666666666667,0.000293
0.6393333333333333,0.000277
0.64,0.000297
0.6406666666666667,0.000316
0.6413333333333333,0.000327
0.642,0.000316
0.6426666666666667,0.00028
0.6433333333333333,0.000285
0.644,0.000242
0.6446666666666667,9.8e-05
0.6453333333333333,-6.1e-05
0.646,-0.000163
0.6466666666666666,-0.000225
0.6473333333333333,-0.000245
0.648,-0.00025
0.6486666666666666,-0.000272
0.6493333333333333,-0.000342
0.65,-0.000377
0.6506666666666666,-0.000303
0.6513333333333333,-0.000209
0.652,-0.000118
0.6526666666666666,1.1e-05
0.6533333333333333,0.000106
0.654,0.00018
0.6546666666666666,0.000275
0.6553333333333333,0.000327
0.656,0.000284
0.6566666666666666,0.000239
0.6573333333333333,0.000249
0.658,0.00025
0.6586666666666666,0.000274
0.6593333333333333,0.000269
0.66,0.000254
0.6606666666666666,0.000267
0.6613333333333333,0.000234
0.662,0.00017
0.6626666666666666,0.000107
0.6633333333333333,9.3e-05
0.664,7.4e-05
0.6646666666666666,1e-06
0.6653333333333333,-8.8e-05
0.666,-0.000165
0.6666666666666666,-0.000263
0.6673333333333333,-0.000302
0.668,-0.000277
0.6686666666666666,-0.000236
0.6693333333333333,-0.000241
0.67,-0.000261
0.6706666666666666,-0.000259
0.6713333333333333,-0.000262
0.672,-0.000225
0.6726666666666666,-0.000144
0.6733333333333333,-3e-05
0.674,0.000112
0.6746666666666666,0.000291
0.6753333333333333,0.000352
0.676,0.000311
0.6766666666666666,0.000301
0.6773333333333333,0.00031
0.678,0.00039
0.6786666666666666,0.000442
0.6793333333333333,0.000395
0.68,0.000299
0.6806666666666666,0.000241
0.6813333333333333,0.000153
0.682,0.000126
0.6826666666666666,0.000104
0.6833333333333333,6.2e-05
0.684,5.4e-05
0.6846666666666666,-8.2e-05
0.6853333333333333,-0.000229
0.686,-0.000348
0.6866666666666666,-0.00041
0.6873333333333334,-0.000362
0.688,-0.000298
0.6886666666666666,-0.000265
0.6893333333333334,-0.000316
0.69,-0.00031
0.6906666666666667,-0.000259
0.6913333333333334,-0.000236
0.692,-0.000156
0.6926666666666667,-4.2e-05
0.6933333333333334,2.7e-05
0.694,0.000118
0.6946666666666667,0.000222
0.6953333333333334,0.000299
0.696,0.000318
0.6966666666666667,0.000283
0.6973333333333334,0.00032
0.698,0.000338
0.6986666666666667,0.000351
0.6993333333333334,0.000314
0.7,0.000269
0.7006666666666667,0.000301
0.7013333333333334,0.000314
0.702,0.000305
0.7026666666666667,0.000254
0.7033333333333334,0.000157
0.704,9e-05
0.7046666666666667,8e-06
0.7053333333333334,-7.7e-05
0.706,-0.000153
0.7066666666666667,-0.000187
0.7073333333333334,-0.000273
0.708,-0.000375
0.7086666666666667,-0.000476
0.7093333333333334,-0.000563
0.71,-0.000538
0.7106666666666667,-0.000423
0.7113333333333334,-0.000322
0.712,-0.000208
0.7126666666666667,-8.1e-05
0.7133333333333334,0.000106
0.714,0.000374
0.7146666666666667,0.000528
0.7153333333333334,0.000522
0.716,0.000457
0.7166666666666667,0.00036
0.7173333333333334,0.000318
0.718,0.000317
0.7186666666666667,0.000318
0.7193333333333334,0.000271
0.72,0.000253
0.7206666666666667,0.000297
0.7213333333333334,0.00026
0.722,0.000208
0.7226666666666667,0.000138
0.7233333333333334,0.000102
0.724,7.6e-05
0.7246666666666667,-7e-06
0.7253333333333334,-0.000109
0.726,-0.00016
0.7266666666666667,-0.000229
0.7273333333333334,-0.000313
0.728,-0.000369
0.7286666666666667,-0.000356
0.7293333333333333,-0.000359
0.73,-0.000338
0.7306666666666667,-0.000263
0.7313333333333333,-0.0002
0.732,-0.000107
0.7326666666666667,-1.9e-05
0.7333333333333333,5.7e-05
0.734,0.000123
0.7346666666666667,0.000178
0.7353333333333333,0.00023
0.736,0.000236
0.7366666666666667,0.000241
0.7373333333333333,0.000296
0.738,0.000296
0.7386666666666667,0.000252
0.7393333333333333,0.000241
0.74,0.000274
0.7406666666666667,0.00036
0.7413333333333333,0.000364
0.742,0.000281
0.7426666666666667,0.000155
0.7433333333333333,8.3e-05
0.744,3.3e-05
0.7446666666666667,-3.6e-05
0.7453333333333333,-9.3e-05
0.746,-0.000147
0.7466666666666667,-0.000182
0.7473333333333333,-0.000225
0.748,-0.000246
0.7486666666666667,-0.000272
0.7493333333333333,-0.000289
0.75,-0.000289
0.7506666666666667,-0.000242
0.7513333333333333,-0.000219
0.752,-0.000169
0.7526666666666667,-7.5e-05
0.7533333333333333,3e-06
0.754,6.4e-05
0.7546666666666667,0.000136
0.7553333333333333,0.000212
0.756,0.000263
0.7566666666666667,0.000294
0.7573333333333333,0.000325
0.758,0.000388
0.7586666666666667,0.000371
0.7593333333333333,0.000264
0.76,0.000236
0.7606666666666667,0.000332
0.7613333333333333,0.00035
0.762,0.000333
0.7626666666666667,0.000264
0.7633333333333333,0.000203
0.764,0.00014
0.7646666666666667,3.1e-05
0.7653333333333333,-8.5e-05
0.766,-0.000168
0.7666666666666667,-0.000281
0.7673333333333333,-0.000369
0.768,-0.000373
0.7686666666666667,-0.000341
0.7693333333333333,-0.000359
0.77,-0.000328
0.7706666666666667,-0.000248
0.7713333333333333,-0.000221
0.772,-0.000137
0.7726666666666666,-5.3e-05
0.7733333333333333,3e-05
0.774,0.000101
0.7746666666666666,0.000185
0.7753333333333333,0.000261
0.776,0.000326
0.7766666666666666,0.000323
0.7773333333333333,0.000324
0.778,0.000351
0.7786666666666666,0.000326
0.7793333333333333,0.000254
0.78,0.000219
0.7806666666666666,0.000259
0.7813333333333333,0.000232
0.782,0.000194
0.7826666666666666,0.000203
0.7833333333333333,0.000184
0.784,0.000174
0.7846666666666666,0.000145
0.7853333333333333,4.2e-05
0.786,-7.7e-05
0.7866666666666666,-0.000221
0.7873333333333333,-0.000306
0.788,-0.000309
0.7886666666666666,-0.000287
0.7893333333333333,-0.000314
0.79,-0.000357
0.7906666666666666,-0.000338
0.7913333333333333,-0.000295
0.792,-0.000228
0.7926666666666666,-0.000188
0.7933333333333333,-6.5e-05
0.794,3.3e-05
0.7946666666666666,4.7e-05
0.7953333333333333,0.00016
0.796,0.000267
0.7966666666666666,0.000307
0.7973333333333333,0.000282
0.798,0.000239
0.7986666666666666,0.000235
0.7993333333333333,0.000177
0.8,0.000136
0.8006666666666666,0.000183
0.8013333333333333,0.000176
0.802,0.000121
0.8026666666666666,9.6e-05
0.8033333333333333,0.000117
0.804,9.7e-05
0.8046666666666666,4e-06
0.8053333333333333,-0.00012
0.806,-0.000217
0.8066666666666666,-0.000253
0.8073333333333333,-0.000309
0.808,-0.000395
0.8086666666666666,-0.000486
0.8093333333333333,-0.000555
0.81,-0.000542
0.8106666666666666,-0.000474
0.8113333333333334,-0.000399
0.812,-0.000339
0.8126666666666666,-0.000268
0.8133333333333334,-0.000152
0.814,-6e-06
0.8146666666666667,0.000117
0.8153333333333334,0.000195
0.816,0.000228
0.8166666666666667,0.00025
0.8173333333333334,0.000243
0.818,0.000214
0.8186666666666667,0.000207
0.8193333333333334,0.000189
0.82,0.000175
0.8206666666666667,0.000189
0.8213333333333334,0.000141
0.822,8.8e-05
0.8226666666666667,8.3e-05
0.8233333333333334,0.000111
0.824,0.000126
0.8246666666666667,8.2e-05
0.8253333333333334,-3e-05
0.826,-0.000159
0.8266666666666667,-0.000294
0.8273333333333334,-0.000435
0.828,-0.000489
0.8286666666666667,-0.000522
0.8293333333333334,-0.000569
0.83,-0.000583
0.8306666666666667,-0.000477
0.8313333333333334,-0.000388
0.832,-0.000328
0.8326666666666667,-0.000233
0.8333333333333334,-0.000153
0.834,-3.1e-05
0.8346666666666667,8.8e-05
0.8353333333333334,0.000116
0.836,9.3e-05
0.8366666666666667,0.000109
0.8373333333333334,0.000143
0.838,0.000177
0.8386666666666667,0.000173
0.8393333333333334,0.000101
0.84,8.7e-05
0.8406666666666667,0.000148
0.8413333333333334,0.000181
0.842,0.00022
0.8426666666666667,0.000214
0.8433333333333334,0.000125
0.844,7.6e-05
0.8446666666666667,-1.6e-05
0.8453333333333334,-0.000132
0.846,-0.000242
0.8466666666666667,-0.000282
0.8473333333333334,-0.000334
0.848,-0.000405
0.8486666666666667,-0.000431
0.8493333333333334,-0.000419
0.85,-0.000415
0.8506666666666667,-0.00035
0.8513333333333334,-0.000317
0.852,-0.000292
0.8526666666666667,-0.000231
0.8533333333333334,-0.000139
0.854,-6e-05
0.8546666666666667,6e-06
0.8553333333333333,5.3e-05
0.856,0.000101
0.8566666666666667,0.000134
0.8573333333333333,0.000159
0.858,0.000202
0.8586666666666667,0.000213
0.8593333333333333,0.000179
0.86,0.000169
0.8606666666666667,0.000199
0.8613333333333333,0.000251
0.862,0.000235
0.8626666666666667,0.000175
0.8633333333333333,0.000122
0.864,0.000153
0.8646666666666667,0.000119
0.8653333333333333,2.6e-05
0.866,-8.7e-05
0.8666666666666667,-0.00018
0.8673333333333333,-0.000283
0.868,-0.000423
0.8686666666666667,-0.000536
0.8693333333333333,-0.000566
0.87,-0.000532
0.8706666666666667,-0.000438
0.8713333333333333,-0.000363
0.872,-0.000284
0.8726666666666667,-0.000209
0.8733333333333333,-0.000113
0.874,-1.6e-05
0.8746666666666667,7.8e-05
0.8753333333333333,8.9e-05
0.876,0.000106
0.8766666666666667,0.000122
0.8773333333333333,0.000117
0.878,0.000133
0.8786666666666667,0.000134
0.8793333333333333,8.9e-05
0.88,8.6e-05
0.8806666666666667,0.00014
0.8813333333333333,0.000192
0.882,0.000249
0.8826666666666667,0.000247
0.8833333333333333,0.000154
0.884,5.6e-05
0.8846666666666667,-7e-05
0.8853333333333333,-0.000206
0.886,-0.00033
0.8866666666666667,-0.000378
0.8873333333333333,-0.000433
0.888,-0.000511
0.8886666666666667,-0.00052
0.8893333333333333,-0.000486
0.89,-0.000494
0.8906666666666667,-0.000411
0.8913333333333333,-0.00031
0.892,-0.000248
0.8926666666666667,-0.000179
0.8933333333333333,-9.6e-05
0.894,-3e-06
0.8946666666666667,8.2e-05
0.8953333333333333,0.000156
0.896,0.000202
0.8966666666666666,0.000216
0.8973333333333333,0.000218
0.898,0.0002
0.8986666666666666,0.000205
0.8993333333333333,0.000182
0.9,0.000118
0.9006666666666666,8e-05
0.9013333333333333,5.4e-05
0.902,2.6e-05
0.9026666666666666,2.8e-05
0.9033333333333333,4.2e-05
0.904,3.9e-05
0.9046666666666666,-3.8e-05
0.9053333333333333,-0.000167
0.906,-0.000267
0.9066666666666666,-0.000331
0.9073333333333333,-0.000392
0.908,-0.000457
0.9086666666666666,-0.000483
0.9093333333333333,-0.000478
0.91,-0.000488
0.9106666666666666,-0.000446
0.9113333333333333,-0.000395
0.912,-0.000294
0.9126666666666666,-0.000187
0.9133333333333333,-9.6e-05
0.914,-3e-05
0.9146666666666666,7.3e-05
0.9153333333333333,0.000164
0.916,0.000206
0.9166666666666666,0.000217
0.9173333333333333,0.000227
0.918,0.000201
0.9186666666666666,0.000138
0.9193333333333333,9.8e-05
0.92,0.000108
0.9206666666666666,0.000129
0.9213333333333333,0.000128
0.922,0.000105
0.9226666666666666,0.000142
0.9233333333333333,0.000155
0.924,0.000163
0.9246666666666666,9.8e-05
0.9253333333333333,7e-06
0.926,-0.000106
0.9266666666666666,-0.000213
0.9273333333333333,-0.000265
0.928,-0.000345
0.9286666666666666,-0.000387
0.9293333333333333,-0.000422
0.93,-0.000442
0.9306666666666666,-0.000417
0.9313333333333333,-0.0004
0.932,-0.000384
0.9326666666666666,-0.000361
0.9333333333333333,-0.000272
0.934,-0.00015
0.9346666666666666,-1.9e-05
0.9353333333333333,7.6e-05
0.936,9.5e-05
0.9366666666666666,0.00013
0.9373333333333334,0.000166
0.938,0.000137
0.9386666666666666,0.000136
0.9393333333333334,0.000167
0.94,0.000131
0.9406666666666667,0.000133
0.9413333333333334,0.00013
0.942,9.8e-05
0.9426666666666667,7.4e-05
0.9433333333333334,-1.1e-05
0.944,-5.5e-05
0.9446666666666667,-9.7e-05
0.9453333333333334,-0.000136
0.946,-0.000218
0.9466666666666667,-0.000302
0.9473333333333334,-0.000389
0.948,-0.000425
0.9486666666666667,-0.000422
0.9493333333333334,-0.000492
0.95,-0.000567
0.9506666666666667,-0.000501
0.9513333333333334,-0.00044
0.952,-0.000372
0.9526666666666667,-0.000267
0.9533333333333334,-8.8e-05
0.954,4.5e-05
0.9546666666666667,9.1e-05
0.9553333333333334,7.2e-05
0.956,7.9e-05
0.9566666666666667,0.000101
0.9573333333333334,7.6e-05
0.958,5e-05
0.9586666666666667,8.6e-05
0.9593333333333334,0.000106
0.96,0.000119
0.9606666666666667,0.000128
0.9613333333333334,0.000167
0.962,0.000164
0.9626666666666667,0.000151
0.9633333333333334,0.000138
0.964,8.4e-05
0.9646666666666667,2.3e-05
0.9653333333333334,-8.6e-05
0.966,-0.000168
0.9666666666666667,-0.000201
0.9673333333333334,-0.000254
0.968,-0.000331
0.9686666666666667,-0.000347
0.9693333333333334,-0.000355
0.97,-0.000348
0.9706666666666667,-0.000324
0.9713333333333334,-0.000308
0.972,-0.00027
0.9726666666666667,-0.000193
0.9733333333333334,-0.000112
0.974,-5.4e-05
0.9746666666666667,1.2e-05
0.9753333333333334,9.5e-05
0.976,0.000151
0.9766666666666667,0.000187
0.9773333333333334,0.000158
0.978,8.7e-05
0.9786666666666667,0.000104
0.9793333333333333,0.00016
0.98,0.000218
0.9806666666666667,0.000285
0.9813333333333333,0.00021
0.982,0.000139
0.9826666666666667,0.000143
0.9833333333333333,0.000121
0.984,0.000145
0.9846666666666667,0.000145
0.9853333333333333,8.6e-05
0.986,-2.3e-05
0.9866666666666667,-0.000155
0.9873333333333333,-0.000305
0.988,-0.000392
0.9886666666666667,-0.000425
0.9893333333333333,-0.000466
0.99,-0.000481
0.9906666666666667,-0.000371
0.9913333333333333,-0.000243
0.992,-0.000154
0.9926666666666667,-0.00012
0.9933333333333333,-6.1e-05
0.994,-2e-06
0.9946666666666667,2.8e-05
0.9953333333333333,7e-05
0.996,0.000108
0.9966666666666667,0.000121
0.9973333333333333,0.000113
0.998,0.000132
0.9986666666666667,0.000199
0.9993333333333333,0.000203
1.0,0.000136
1.0006666666666666,0.000182
1.0013333333333334,0.000228
1.002,0.000157
1.0026666666666666,7e-05
1.0033333333333334,1.8e-05
1.004,-4e-06
1.0046666666666666,-1.9e-05
1.0053333333333334,-9e-05
1.006,-0.000198
1.0066666666666666,-0.0003
1.0073333333333334,-0.000353
1.008,-0.00038
1.0086666666666666,-0.000427
1.0093333333333334,-0.00041
1.01,-0.000347
1.0106666666666666,-0.000344
1.0113333333333334,-0.000406
1.012,-0.000417
1.0126666666666666,-0.000358
1.0133333333333334,-0.000246
1.014,-0.00019
1.0146666666666666,-2.8e-05
1.0153333333333334,0.000133
1.016,0.000278
1.0166666666666666,0.000321
1.0173333333333334,0.000336
1.018,0.00033
1.0186666666666666,0.000241
1.0193333333333334,0.000112
1.02,7.6e-05
1.0206666666666666,0.000176
1.0213333333333334,0.000275
1.022,0.00029
1.0226666666666666,0.000336
1.0233333333333334,0.000332
1.024,0.000277
1.0246666666666666,0.000255
1.0253333333333334,0.000153
1.026,-5.8e-05
1.0266666666666666,-0.000228
1.0273333333333334,-0.000398
1.028,-0.00054
1.0286666666666666,-0.000591
1.0293333333333334,-0.000578
1.03,-0.000556
1.0306666666666666,-0.00046
1.0313333333333334,-0.000305
1.032,-0.000208
1.0326666666666666,-0.000116
1.0333333333333334,3.2e-05
1.034,0.000177
1.0346666666666666,0.000247
1.0353333333333334,0.00018
1.036,7.2e-05
1.0366666666666666,3.3e-05
1.0373333333333334,0.000113
1.038,0.000227
1.0386666666666666,0.000236
1.0393333333333334,0.000211
1.04,0.000162
1.0406666666666666,0.000186
1.0413333333333334,0.00021
1.042,0.000216
1.0426666666666666,0.000155
1.0433333333333332,8e-05
1.044,4.4e-05
1.0446666666666666,3.6e-05
1.0453333333333332,-3.3e-05
1.046,-9.1e-05
1.0466666666666666,-0.000115
1.0473333333333332,-0.000181
1.048,-0.000312
1.0486666666666666,-0.000392
1.0493333333333332,-0.000496
1.05,-0.00059
1.0506666666666666,-0.000566
1.0513333333333332,-0.00042
1.052,-0.000283
1.0526666666666666,-0.000129
1.0533333333333332,5.5e-05
1.054,4.5e-05
1.0546666666666666,-1.6e-05
1.0553333333333332,1.5e-05
1.056,0.000108
1.0566666666666666,0.000108
1.0573333333333332,8e-05
1.058,0.00013
1.0586666666666666,0.000216
1.0593333333333332,0.000181
1.06,0.000117
1.0606666666666666,0.000117
1.0613333333333332,0.000127
1.062,0.000141
1.0626666666666666,0.000103
1.0633333333333332,0.000104
1.064,0.000147
1.0646666666666667,9.7e-05
1.0653333333333332,-3.5e-05
1.066,-0.000127
1.0666666666666667,-0.000179
1.0673333333333332,-0.000289
1.068,-0.000366
1.0686666666666667,-0.000469
1.0693333333333332,-0.000497
1.07,-0.000538
1.0706666666666667,-0.000565
1.0713333333333332,-0.000473
1.072,-0.000369
1.0726666666666667,-0.000249
1.0733333333333333,-8.2e-05
1.074,6e-05
1.0746666666666667,0.000147
1.0753333333333333,0.000213
1.076,0.000263
1.0766666666666667,0.000279
1.0773333333333333,0.000212
1.078,0.000135
1.0786666666666667,9.9e-05
1.0793333333333333,0.000125
1.08,0.000164
1.0806666666666667,0.000178
1.0813333333333333,0.000199
1.082,0.00018
1.0826666666666667,0.000137
1.0833333333333333,9.5e-05
1.084,7.3e-05
1.0846666666666667,2.5e-05
1.0853333333333333,-9e-05
1.086,-0.000115
1.0866666666666667,-7.4e-05
1.0873333333333333,-1.8e-05
1.088,-4.1e-05
1.0886666666666667,-0.000268
1.0893333333333333,-0.000491
1.09,-0.000548
1.0906666666666667,-0.000516
1.0913333333333333,-0.000438
1.092,-0.000391
1.0926666666666667,-0.000332
1.0933333333333333,-0.000254
1.094,-0.00017
1.0946666666666667,-0.000122
1.0953333333333333,-8.3e-05
1.096,3e-06
1.0966666666666667,6.9e-05
1.0973333333333333,0.000136
1.098,0.00016
1.0986666666666667,0.000183
1.0993333333333333,0.000244
1.1,0.000176
1.1006666666666667,0.000117
1.1013333333333333,0.000131
1.102,0.000164
1.1026666666666667,0.000235
1.1033333333333333,0.000161
1.104,2e-05
1.1046666666666667,-2.4e-05
1.1053333333333333,-6.7e-05
1.106,-0.000154
1.1066666666666667,-0.00029
1.1073333333333333,-0.000485
1.108,-0.000515
1.1086666666666667,-0.000462
1.1093333333333333,-0.0004
1.11,-0.0005
1.1106666666666667,-0.000582
1.1113333333333333,-0.000461
1.112,-0.000223
1.1126666666666667,-5.9e-05
1.1133333333333333,0.000116
1.114,0.00026
1.1146666666666667,0.000265
1.1153333333333333,0.000293
1.116,0.000319
1.1166666666666667,0.000343
1.1173333333333333,0.000296
1.118,0.000216
1.1186666666666667,0.000213
1.1193333333333333,0.000131
1.12,3.4e-05
1.1206666666666667,0.000118
1.1213333333333333,0.000188
1.122,0.000144
1.1226666666666667,0.000103
1.1233333333333333,5e-06
1.124,-2.7e-05
1.1246666666666667,-1.4e-05
1.1253333333333333,-6.4e-05
1.126,-0.000108
1.1266666666666667,-9.4e-05
1.1273333333333333,-5.2e-05
1.128,-1.2e-05
1.1286666666666667,-3.3e-05
1.1293333333333333,-7.7e-05
1.13,-0.000156
1.1306666666666667,-0.000269
1.1313333333333333,-0.000358
1.132,-0.000416
1.1326666666666667,-0.000396
1.1333333333333333,-0.000278
1.134,-0.000167
1.1346666666666667,-1.6e-05
1.1353333333333333,5.1e-05
1.136,5.1e-05
1.1366666666666667,2.9e-05
1.1373333333333333,0.000159
1.138,0.00033
1.1386666666666667,0.000407
1.1393333333333333,0.000371
1.14,0.000264
1.1406666666666667,0.000202
1.1413333333333333,0.00018
1.142,0.000167
1.1426666666666667,0.000142
1.1433333333333333,0.000108
1.144,9e-05
1.1446666666666667,8.7e-05
1.1453333333333333,3.1e-05
1.146,-8.7e-05
1.1466666666666667,-0.000218
1.1473333333333333,-0.000371
1.148,-0.000479
1.1486666666666667,-0.000512
1.1493333333333333,-0.000533
1.15,-0.000552
1.1506666666666667,-0.000484
1.1513333333333333,-0.000353
1.152,-0.000179
1.1526666666666667,1.1e-05
1.1533333333333333,0.000147
1.154,0.000169
1.1546666666666667,8.6e-05
1.1553333333333333,2.5e-05
1.156,5.2e-05
1.1566666666666667,6.7e-05
1.1573333333333333,3.9e-05
1.158,1.9e-05
1.1586666666666667,8e-05
1.1593333333333333,0.000105
1.16,8.4e-05
1.1606666666666667,0.000106
1.1613333333333333,0.000125
1.162,0.000142
1.1626666666666667,0.000192
1.1633333333333333,0.000232
1.164,0.000165
1.1646666666666667,9.9e-05
1.1653333333333333,-4.8e-05
1.166,-0.000203
1.1666666666666667,-0.000385
1.1673333333333333,-0.00051
1.168,-0.000491
1.1686666666666667,-0.000522
1.1693333333333333,-0.000522
1.17,-0.000486
1.1706666666666667,-0.000457
1.1713333333333333,-0.000421
1.172,-0.00048
1.1726666666666667,-0.000461
1.1733333333333333,-0.000366
1.174,-0.000195
1.1746666666666667,-6.2e-05
1.1753333333333333,-4e-06
1.176,5.6e-05
1.1766666666666667,8.1e-05
1.1773333333333333,5e-05
1.178,2.8e-05
1.1786666666666668,8.7e-05
1.1793333333333333,0.000138
1.18,0.000104
1.1806666666666668,6.3e-05
1.1813333333333333,6.2e-05
1.182,0.000108
1.1826666666666668,0.000267
1.1833333333333333,0.000284
1.184,0.000178
1.1846666666666668,6.7e-05
1.1853333333333333,-0.00012
1.186,-0.000237
1.1866666666666668,-0.000258
1.1873333333333334,-0.00028
1.188,-0.000267
1.1886666666666668,-0.00025
1.1893333333333334,-0.000286
1.19,-0.000332
1.1906666666666668,-0.000302
1.1913333333333334,-0.000216
1.192,-0.000129
1.1926666666666668,-0.000139
1.1933333333333334,-0.00011
1.194,-8.7e-05
1.1946666666666668,-5.8e-05
1.1953333333333334,-5e-06
1.196,-4.9e-05
1.1966666666666668,-9e-05
1.1973333333333334,1.5e-05
1.198,0.000171
1.1986666666666668,0.000302
1.1993333333333334,0.000353
1.2,0.000243
1.2006666666666668,8.6e-05
1.2013333333333334,6.1e-05
1.202,0.000136
1.2026666666666668,0.000194
1.2033333333333334,0.000148
1.204,0.000124
1.2046666666666668,7.6e-05
1.2053333333333334,1.2e-05
1.206,-0.000149
1.2066666666666668,-0.000317
1.2073333333333334,-0.00035
1.208,-0.000433
1.2086666666666666,-0.000569
1.2093333333333334,-0.000639
1.21,-0.000665
1.2106666666666666,-0.000495
1.2113333333333334,-0.000261
1.212,-0.000202
1.2126666666666666,-0.000184
1.2133333333333334,-0.000184
1.214,-0.00016
1.2146666666666666,-7.7e-05
1.2153333333333334,6e-05
1.216,0.000159
1.2166666666666666,0.000263
1.2173333333333334,0.000301
1.218,0.00031
1.2186666666666666,0.000313
1.2193333333333334,0.000306
1.22,0.000399
1.2206666666666666,0.000467
1.2213333333333334,0.000427
1.222,0.000306
1.2226666666666666,0.000225
1.2233333333333334,0.000212
1.224,7.3e-05
1.2246666666666666,-5.8e-05
1.2253333333333334,-4.1e-05
1.226,-6e-05
1.2266666666666666,-0.000266
1.2273333333333334,-0.000461
1.228,-0.000519
1.2286666666666666,-0.000484
1.2293333333333334,-0.000474
1.23,-0.000444
1.2306666666666666,-0.00038
1.2313333333333334,-0.000334
1.232,-0.000275
1.2326666666666666,-0.000237
1.2333333333333334,-0.000244
1.234,-0.000201
1.2346666666666666,-0.000149
1.2353333333333334,-0.000155
1.236,-0.000122
1.2366666666666666,4.7e-05
1.2373333333333334,0.000278
1.238,0.000472
1.2386666666666666,0.000483
1.2393333333333334,0.000388
1.24,0.000328
1.2406666666666666,0.000366
1.2413333333333334,0.000516
1.242,0.000531
1.2426666666666666,0.000365
1.2433333333333334,0.000138
1.244,8.7e-05
1.2446666666666666,3.2e-05
1.2453333333333334,-6.3e-05
1.246,-7.9e-05
1.2466666666666666,-9.6e-05
1.2473333333333334,-0.000163
1.248,-0.000251
1.2486666666666666,-0.000298
1.2493333333333334,-0.000279
1.25,-0.000251
1.2506666666666666,-0.000282
1.2513333333333334,-0.000399
1.252,-0.000533
1.2526666666666666,-0.000493
1.2533333333333334,-0.000304
1.254,-0.000195
1.2546666666666666,-0.000179
1.2553333333333334,-0.000215
1.256,-0.000229
1.2566666666666666,-6.1e-05
1.2573333333333334,0.000138
1.258,0.000173
1.2586666666666666,0.000174
1.2593333333333334,6.4e-05
1.26,-2e-05
1.2606666666666666,-2.4e-05
1.2613333333333334,-0.000109
1.262,-0.000182
1.2626666666666666,-1e-06
1.2633333333333334,0.000329
1.264,0.000502
1.2646666666666666,0.000502
1.2653333333333334,0.00032
1.266,0.00017
1.2666666666666666,4.5e-05
1.2673333333333334,-3.3e-05
1.268,-2e-06
1.2686666666666666,0.000127
1.2693333333333334,8.8e-05
1.27,-0.000204
1.2706666666666666,-0.000558
1.2713333333333334,-0.000544
1.272,-0.00021
1.2726666666666666,3e-06
1.2733333333333334,-6.2e-05
1.274,-0.000144
1.2746666666666666,-4.9e-05
1.2753333333333334,6.9e-05
1.276,0.000153
1.2766666666666666,0.000273
1.2773333333333334,0.000197
1.278,-0.000126
1.2786666666666666,-0.000196
1.2793333333333334,-2.4e-05
1.28,1.4e-05
1.2806666666666666,0.000113
1.2813333333333334,0.000283
1.282,0.000376
1.2826666666666666,0.000622
1.2833333333333334,0.00084
1.284,0.000891
1.2846666666666666,0.000753
1.2853333333333334,0.000409
1.286,3.2e-05
1.2866666666666666,-0.00027
1.2873333333333334,-0.000417
1.288,-0.00049
1.2886666666666666,-0.000573
1.2893333333333334,-0.000775
1.29,-0.000878
1.2906666666666666,-0.000737
1.2913333333333334,-0.000541
1.292,-0.000372
1.2926666666666666,-0.000201
1.2933333333333332,-3.6e-05
1.294,-0.000129
1.2946666666666666,-0.000237
1.2953333333333332,-0.000157
1.296,-6e-06
1.2966666666666666,0.000249
1.2973333333333332,0.000493
1.298,0.000473
1.2986666666666666,0.000446
1.2993333333333332,0.000512
1.3,0.000418
1.3006666666666666,0.000232
1.3013333333333332,2e-05
1.302,0.000149
1.3026666666666666,0.000279
1.3033333333333332,0.000235
1.304,0.000113
1.3046666666666666,0.000232
1.3053333333333332,0.000223
1.306,8.5e-05
1.3066666666666666,5.1e-05
1.3073333333333332,0.000106
1.308,-3.2e-05
1.3086666666666666,-0.000234
1.3093333333333332,-0.000268
1.31,-0.00042
1.3106666666666666,-0.000676
1.3113333333333332,-0.000815
1.312,-0.000872
1.3126666666666666,-0.0009
1.3133333333333332,-0.000812
1.314,-0.000433
1.3146666666666667,-4e-05
1.3153333333333332,0.000331
1.316,0.000496
1.3166666666666667,0.000359
1.3173333333333332,0.000324
1.318,0.000377
1.3186666666666667,0.000392
1.3193333333333332,0.000264
1.32,6.8e-05
1.3206666666666667,-0.000143
1.3213333333333332,-3.8e-05
1.322,0.000478
1.3226666666666667,0.000732
1.3233333333333333,0.000697
1.324,0.000655
1.3246666666666667,0.000422
1.3253333333333333,0.000267
1.326,0.000138
1.3266666666666667,-8.2e-05
1.3273333333333333,-0.000218
1.328,-0.000313
1.3286666666666667,-0.000275
1.3293333333333333,-0.000129
1.33,-0.000242
1.3306666666666667,-0.000532
1.3313333333333333,-0.000807
1.332,-0.000665
1.3326666666666667,-0.000359
1.3333333333333333,-0.000162
1.334,8.4e-05
1.3346666666666667,0.000213
1.3353333333333333,0.00017
1.336,1.4e-05
1.3366666666666667,0.000152
1.3373333333333333,0.000232
1.338,5.5e-05
1.3386666666666667,-0.000278
1.3393333333333333,-0.000253
1.34,9.3e-05
1.3406666666666667,0.000453
1.3413333333333333,0.000648
1.342,0.000427
1.3426666666666667,0.000105
1.3433333333333333,-9.9e-05
1.344,-4.4e-05
1.3446666666666667,0.000192
1.3453333333333333,0.000137
1.346,-9.7e-05
1.3466666666666667,-0.000449
1.3473333333333333,-0.000487
1.348,-0.0004
1.3486666666666667,-0.000472
1.3493333333333333,-0.000469
1.35,-0.00037
1.3506666666666667,-0.000145
1.3513333333333333,6e-06
1.352,-2.6e-05
1.3526666666666667,-0.000428
1.3533333333333333,-0.00078
1.354,-0.00078
1.3546666666666667,-0.000535
1.3553333333333333,-0.000479
1.356,-0.000222
1.3566666666666667,0.000198
1.3573333333333333,0.000786
1.358,0.001094
1.3586666666666667,0.000679
1.3593333333333333,0.000169
1.36,8.4e-05
1.3606666666666667,0.000325
1.3613333333333333,0.000186
1.362,9.7e-05
1.3626666666666667,0.00013
1.3633333333333333,0.000109
1.364,6.5e-05
1.3646666666666667,-7.2e-05
1.3653333333333333,-1.9e-05
1.366,-7.4e-05
1.3666666666666667,-0.000182
1.3673333333333333,-0.000105
1.368,0.000149
1.3686666666666667,-0.000239
1.3693333333333333,-0.000646
1.37,-0.000618
1.3706666666666667,-0.000548
1.3713333333333333,-0.000762
1.372,-0.000871
1.3726666666666667,-0.000626
1.3733333333333333,-0.000352
1.374,-0.000231
1.3746666666666667,0.000113
1.3753333333333333,0.000645
1.376,0.001004
1.3766666666666667,0.001101
1.3773333333333333,0.000647
1.378,0.000237
1.3786666666666667,0.000138
1.3793333333333333,0.000365
1.38,0.000583
1.3806666666666667,0.000398
1.3813333333333333,0.000369
1.382,0.00067
1.3826666666666667,0.000841
1.3833333333333333,0.001007
1.384,0.000953
1.3846666666666667,0.001025
1.3853333333333333,0.000877
1.386,0.000713
1.3866666666666667,0.000434
1.3873333333333333,0.000127
1.388,-0.000262
1.3886666666666667,-0.000214
1.3893333333333333,1.7e-05
1.39,0.000242
1.3906666666666667,0.000321
1.3913333333333333,0.000397
1.392,0.000426
1.3926666666666667,0.000122
1.3933333333333333,-0.000232
1.394,-0.00062
1.3946666666666667,-0.000588
1.3953333333333333,-5e-06
1.396,0.000347
1.3966666666666667,0.000349
1.3973333333333333,0.000416
1.398,0.000454
1.3986666666666667,0.000244
1.3993333333333333,-8e-06
1.4,-0.000211
1.4006666666666667,-0.000184
1.4013333333333333,-0.000154
1.402,-2.7e-05
1.4026666666666667,6.9e-05
1.4033333333333333,0.00017
1.404,0.000286
1.4046666666666667,0.000391
1.4053333333333333,0.000141
1.406,-0.000559
1.4066666666666667,-0.000822
1.4073333333333333,-0.000888
1.408,-0.000903
1.4086666666666667,-0.00062
1.4093333333333333,-0.000523
1.41,-0.000361
1.4106666666666667,-2.2e-05
1.4113333333333333,-8.8e-05
1.412,-0.000427
1.4126666666666667,-0.000493
1.4133333333333333,-0.000478
1.414,-0.00053
1.4146666666666667,-0.000433
1.4153333333333333,-2.2e-05
1.416,0.000198
1.4166666666666667,0.000231
1.4173333333333333,0.000109
1.418,5.1e-05
1.4186666666666667,0.000153
1.4193333333333333,9e-06
1.42,-0.000279
1.4206666666666667,-0.000202
1.4213333333333333,-0.000167
1.422,-0.000243
1.4226666666666667,-0.000143
1.4233333333333333,-0.000323
1.424,-0.000333
1.4246666666666667,-0.000149
1.4253333333333333,4.2e-05
1.426,0.00012
1.4266666666666667,-4.9e-05
1.4273333333333333,-0.000262
1.428,-0.000347
1.4286666666666668,-0.000415
1.4293333333333333,-0.000474
1.43,-0.000393
1.4306666666666668,7.1e-05
1.4313333333333333,0.000566
1.432,0.000693
1.4326666666666668,0.000364
1.4333333333333333,0.000187
1.434,-4.2e-05
1.4346666666666668,-0.00025
1.4353333333333333,-0.000108
1.436,0.000137
1.4366666666666668,0.000404
1.4373333333333334,0.000576
1.438,0.000534
1.4386666666666668,0.000407
1.4393333333333334,0.000109
1.44,-0.000184
1.4406666666666668,8e-05
1.4413333333333334,0.000644
1.442,0.000802
1.4426666666666668,0.000647
1.4433333333333334,0.000652
1.444,0.00041
1.4446666666666668,-0.000137
1.4453333333333334,-0.000484
1.446,-0.000717
1.4466666666666668,-0.000862
1.4473333333333334,-0.000894
1.448,-0.000909
1.4486666666666668,-0.000913
1.4493333333333334,-0.00091
1.45,-0.000911
1.4506666666666668,-0.000912
1.4513333333333334,-0.000914
1.452,-0.000913
1.4526666666666668,-0.000914
1.4533333333333334,-0.000914
1.454,-0.000668
1.4546666666666668,-0.000237
1.4553333333333334,-0.000207
1.456,-0.000145
1.4566666666666668,-0.000177
1.4573333333333334,-0.000628
1.458,-0.000715
1.4586666666666666,-0.000589
1.4593333333333334,-0.000526
1.46,-0.000615
1.4606666666666666,-0.000649
1.4613333333333334,-0.000332
1.462,-4e-06
1.4626666666666666,0.000219
1.4633333333333334,0.000357
1.464,0.000328
1.4646666666666666,0.000213
1.4653333333333334,-0.000275
1.466,-0.000562
1.4666666666666666,-0.000718
1.4673333333333334,-0.000795
1.468,-0.000667
1.4686666666666666,-0.000582
1.4693333333333334,-0.000788
1.47,-0.000666
1.4706666666666666,-0.000207
1.4713333333333334,-0.000278
1.472,-0.00045
1.4726666666666666,-0.000263
1.4733333333333334,-0.000121
1.474,-2.7e-05
1.4746666666666666,6.2e-05
1.4753333333333334,-2.7e-05
1.476,-0.00026
1.4766666666666666,-0.00033
1.4773333333333334,-7.6e-05
1.478,-0.000161
1.4786666666666666,-0.000386
1.4793333333333334,-0.000529
1.48,-0.000328
1.4806666666666666,-0.000226
1.4813333333333334,-0.000254
1.482,-0.000496
1.4826666666666666,-0.000806
1.4833333333333334,-0.000884
1.484,-0.000903
1.4846666666666666,-0.000913
1.4853333333333334,-0.00091
1.486,-0.000873
1.4866666666666666,-0.000875
1.4873333333333334,-0.000904
1.488,-0.000908
1.4886666666666666,-0.000914
1.4893333333333334,-0.000911
1.49,-0.000764
1.4906666666666666,-0.00016
1.4913333333333334,0.000316
1.492,0.000269
1.4926666666666666,-0.000169
1.4933333333333334,-0.000397
1.494,-0.000549
1.4946666666666666,-0.000429
1.4953333333333334,-0.000234
1.496,-0.000217
1.4966666666666666,-0.000224
1.4973333333333334,-4e-06
1.498,1.5e-05
1.4986666666666666,-3.2e-05
1.4993333333333334,-0.00028
1.5,-0.000526
1.5006666666666666,-0.000792
1.5013333333333334,-0.000875
1.502,-0.000902
1.5026666666666666,-0.000272
1.5033333333333334,0.000208
1.504,6.5e-05
1.5046666666666666,-0.000577
1.5053333333333334,-0.000826
1.506,-0.000888
1.5066666666666666,-0.000906
1.5073333333333334,-0.000905
1.508,-0.000915
1.5086666666666666,-0.000536
1.5093333333333334,-0.000262
1.51,-0.000344
1.5106666666666666,-0.000565
1.5113333333333334,-0.000821
1.512,-0.000891
1.5126666666666666,-0.000908
1.5133333333333334,-0.000894
1.514,-0.00024
1.5146666666666666,0.000216
1.5153333333333334,0.000569
1.516,0.00098
1.5166666666666666,0.001118
1.5173333333333334,0.001119
1.518,0.001463
1.5186666666666666,0.001585
1.5193333333333334,0.001585
1.52,0.001391
1.5206666666666666,0.001173
1.5213333333333334,0.001033
1.522,0.00128
1.5226666666666666,0.0012
1.5233333333333334,0.000696
1.524,0.000293
1.5246666666666666,-5.9e-05
1.5253333333333334,-9.3e-05
1.526,-0.000125
1.5266666666666666,-0.000228
1.5273333333333334,-0.000585
1.528,-0.000822
1.5286666666666666,-0.000884
1.5293333333333334,-0.000907
1.53,-0.000599
1.5306666666666666,-0.000634
1.5313333333333334,-0.000496
1.532,-0.000157
1.5326666666666666,0.000166
1.5333333333333334,3.6e-05
1.534,6.5e-05
1.5346666666666666,0.000361
1.5353333333333334,0.000376
1.536,0.000344
1.5366666666666666,6.5e-05
1.5373333333333334,-0.000314
1.538,4.2e-05
1.5386666666666666,0.000331
1.5393333333333334,0.000378
1.54,0.000344
1.5406666666666666,0.000206
1.5413333333333334,-0.000217
1.542,-0.000497
1.5426666666666666,-0.000245
1.5433333333333332,0.000179
1.544,0.000567
1.5446666666666666,0.000761
1.5453333333333332,0.000427
1.546,-0.000364
1.5466666666666666,-0.000769
1.5473333333333332,-0.000872
1.548,-0.000902
1.5486666666666666,-0.000774
1.5493333333333332,-0.000733
1.55,-0.00082
1.5506666666666666,-0.000891
1.5513333333333332,-0.000903
1.552,-0.000911
1.5526666666666666,-0.000908
1.5533333333333332,-0.000721
1.554,-0.000622
1.5546666666666666,-0.000817
1.5553333333333332,-0.000889
1.556,-0.000906
1.5566666666666666,-0.000412
1.5573333333333332,0.000112
1.558,0.000918
1.5586666666666666,0.000935
1.5593333333333332,0.000329
1.56,-7.1e-05
1.5606666666666666,-0.000299
1.5613333333333332,0.000103
1.562,0.000608
1.5626666666666666,0.00026
1.5633333333333332,5.7e-05
1.564,-0.000199
1.5646666666666667,-0.000642
1.5653333333333332,-0.000757
1.566,-0.000488
1.5666666666666667,-0.000531
1.5673333333333332,-0.000817
1.568,-0.000888
1.5686666666666667,-0.000901
1.5693333333333332,-0.000912
1.57,-0.000915
1.5706666666666667,-0.000913
1.5713333333333332,-0.000913
1.572,-0.000915
1.5726666666666667,-0.000912
1.5733333333333333,-0.000914
1.574,-0.000915
1.5746666666666667,-0.00091
1.5753333333333333,-0.000912
1.576,-0.000912
1.5766666666666667,-0.000914
1.5773333333333333,-0.000911
1.578,-0.000907
1.5786666666666667,-0.000342
1.5793333333333333,0.000321
1.58,0.000903
1.5806666666666667,0.001393
1.5813333333333333,0.001486
1.582,0.001419
1.5826666666666667,0.001585
1.5833333333333333,0.001585
1.584,0.001585
1.5846666666666667,0.001585
1.5853333333333333,0.001585
1.586,0.001385
1.5866666666666667,0.001427
1.5873333333333333,0.001585
1.588,0.001185
1.5886666666666667,0.000351
1.5893333333333333,-0.000403
1.59,-0.000775
1.5906666666666667,-0.000871
1.5913333333333333,-0.0009
1.592,-0.000914
1.5926666666666667,-0.000911
1.5933333333333333,-0.000911
1.594,-0.00091
1.5946666666666667,-0.000913
1.5953333333333333,-0.000909
1.596,-0.000911
1.5966666666666667,-0.000912
1.5973333333333333,-0.000789
1.598,-0.000834
1.5986666666666667,-0.000824
1.5993333333333333,-0.000894
1.6,-0.000772
1.6006666666666667,-0.000743
1.6013333333333333,-0.000674
1.602,-0.000467
1.6026666666666667,-5.4e-05
1.6033333333333333,0.000465
1.604,0.000906
1.6046666666666667,0.001392
1.6053333333333333,0.001585
1.606,0.001585
1.6066666666666667,0.001585
1.6073333333333333,0.001585
1.608,0.001585
1.6086666666666667,0.001585
1.6093333333333333,0.001585
1.61,0.001252
1.6106666666666667,0.000616
1.6113333333333333,0.000435
1.612,0.000575
1.6126666666666667,0.000598
1.6133333333333333,0.000746
1.614,0.00083
1.6146666666666667,0.000751
1.6153333333333333,0.000352
1.616,0.000102
1.6166666666666667,0.000219
1.6173333333333333,-1.2e-05
1.618,-0.000286
1.6186666666666667,-0.000311
1.6193333333333333,-8.1e-05
1.62,0.000255
1.6206666666666667,0.000277
1.6213333333333333,2e-05
1.622,-0.000269
1.6226666666666667,-0.000229
1.6233333333333333,-0.000234
1.624,-0.000625
1.6246666666666667,-0.00083
1.6253333333333333,-0.000892
1.626,-0.000904
1.6266666666666667,-0.000907
1.6273333333333333,-0.000911
1.628,-0.000371
1.6286666666666667,0.000248
1.6293333333333333,-0.000184
1.63,-0.000384
1.6306666666666667,-0.000491
1.6313333333333333,-0.000465
1.632,-0.000557
1.6326666666666667,-0.000511
1.6333333333333333,-0.000256
1.634,2.7e-05
1.6346666666666667,0.000538
1.6353333333333333,0.001585
1.636,0.001585
1.6366666666666667,0.001585
1.6373333333333333,0.001585
1.638,0.001585
1.6386666666666667,0.001585
1.6393333333333333,0.001127
1.64,0.000664
1.6406666666666667,0.000407
1.6413333333333333,0.000465
1.642,0.000245
1.6426666666666667,-0.000364
1.6433333333333333,-0.000765
1.644,-0.000872
1.6446666666666667,-0.000903
1.6453333333333333,-0.00091
1.646,-0.000913
1.6466666666666667,-0.000913
1.6473333333333333,-0.000912
1.648,-0.000912
1.6486666666666667,-0.000912
1.6493333333333333,-0.000911
1.65,-0.00091
1.6506666666666667,-0.000911
1.6513333333333333,-0.00091
1.652,-0.000914
1.6526666666666667,-0.000914
1.6533333333333333,-0.000416
1.654,-6.6e-05
1.6546666666666667,0.000272
1.6553333333333333,0.000649
1.656,0.001099
1.6566666666666667,0.001585
1.6573333333333333,0.001585
1.658,0.001585
1.6586666666666667,0.001481
1.6593333333333333,0.001585
1.66,0.001585
1.6606666666666667,0.001266
1.6613333333333333,0.001194
1.662,0.000963
1.6626666666666667,0.000482
1.6633333333333333,0.000201
1.664,0.000507
1.6646666666666667,0.000844
1.6653333333333333,0.001119
1.666,0.00071
1.6666666666666667,0.000129
1.6673333333333333,-0.00056
1.668,-0.000816
1.6686666666666667,-0.000883
1.6693333333333333,-0.000903
1.67,-0.000908
1.6706666666666667,-0.000914
1.6713333333333333,-0.000911
1.672,-0.000913
1.6726666666666667,-0.000914
1.6733333333333333,-0.000911
1.674,-0.000915
1.6746666666666667,-0.000915
1.6753333333333333,-0.000911
1.676,-0.000913
1.6766666666666667,-0.000911
1.6773333333333333,-0.000913
1.678,-0.000915
1.6786666666666668,-0.000913
1.6793333333333333,-0.000915
1.68,-0.000913
1.6806666666666668,-0.000914
1.6813333333333333,-0.000915
1.682,-0.000913
1.6826666666666668,-0.000914
1.6833333333333333,-0.000355
1.684,0.000192
1.6846666666666668,0.000572
1.6853333333333333,0.000938
1.686,0.001172
1.6866666666666668,0.001585
1.6873333333333334,0.001585
1.688,0.001585
1.6886666666666668,0.001585
1.6893333333333334,0.001585
1.69,0.001585
1.6906666666666668,0.001585
1.6913333333333334,0.001585
1.692,0.001585
1.6926666666666668,0.001585
1.6933333333333334,0.001585
1.694,0.001585
1.6946666666666668,0.001585
1.6953333333333334,0.001569
1.696,0.001446
1.6966666666666668,0.001181
1.6973333333333334,0.001297
1.698,0.00094
1.6986666666666668,0.000805
1.6993333333333334,0.00046
1.7,-0.000286
1.7006666666666668,-0.000743
1.7013333333333334,-0.000869
1.702,-0.000899
1.7026666666666668,-0.000908
1.7033333333333334,-0.000913
1.704,-0.00091
1.7046666666666668,-0.000911
1.7053333333333334,-0.000915
1.706,-0.000909
1.7066666666666668,-0.000911
1.7073333333333334,-0.000915
1.708,-0.000908
1.7086666666666666,-0.000915
1.7093333333333334,-0.000892
1.71,6.9e-05
1.7106666666666666,0.000681
1.7113333333333334,0.001105
1.712,0.001585
1.7126666666666666,0.001585
1.7133333333333334,0.001585
1.714,0.001585
1.7146666666666666,0.001585
1.7153333333333334,0.001585
1.716,0.001585
1.7166666666666666,0.001585
1.7173333333333334,0.001585
1.718,0.001585
1.7186666666666666,0.001585
1.7193333333333334,0.001585
1.72,0.001585
1.7206666666666666,0.001129
1.7213333333333334,0.00061
1.722,0.000584
1.7226666666666666,0.000528
1.7233333333333334,0.000565
1.724,0.000563
1.7246666666666666,0.000698
1.7253333333333334,0.000868
1.726,0.00086
1.7266666666666666,0.000833
1.7273333333333334,0.00076
1.728,0.000325
1.7286666666666666,-0.000132
1.7293333333333334,-0.000262
1.73,1.3e-05
1.7306666666666666,0.000523
1.7313333333333334,0.00052
1.732,-0.000345
1.7326666666666666,-0.000765
1.7333333333333334,-0.000866
1.734,-0.000862
1.7346666666666666,-0.000626
1.7353333333333334,-0.000743
1.736,-0.000867
1.7366666666666666,-0.000902
1.7373333333333334,-0.000911
1.738,-0.000905
1.7386666666666666,-0.00091
1.7393333333333334,-0.000914
1.74,-0.000709
1.7406666666666666,-0.000857
1.7413333333333334,-0.000901
1.742,-0.000908
1.7426666666666666,-0.000913
1.7433333333333334,-0.000915
1.744,-0.00091
1.7446666666666666,-0.000913
1.7453333333333334,-0.000915
1.746,-0.000913
1.7466666666666666,-0.000911
1.7473333333333334,-0.000912
1.748,-0.000915
1.7486666666666666,-0.000913
1.7493333333333334,-0.000877
1.75,-0.000325
1.7506666666666666,0.000356
1.7513333333333334,0.001101
1.752,0.001429
1.7526666666666666,0.001345
1.7533333333333334,0.001196
1.754,0.001585
1.7546666666666666,0.001426
1.7553333333333334,0.00107
1.756,0.000956
1.7566666666666666,0.001157
1.7573333333333334,0.001138
1.758,0.00075
1.7586666666666666,0.000346
1.7593333333333334,0.000724
1.76,0.001263
1.7606666666666666,0.00084
1.7613333333333334,3.5e-05
1.762,-0.000268
1.7626666666666666,-2.7e-05
1.7633333333333334,0.000645
1.764,0.001049
1.7646666666666666,0.000793
1.7653333333333334,0.000411
1.766,-8.1e-05
1.7666666666666666,-0.000691
1.7673333333333334,-0.000851
1.768,-0.000896
1.7686666666666666,-0.000623
1.7693333333333334,0.000288
1.77,0.000772
1.7706666666666666,0.000294
1.7713333333333334,-0.000233
1.772,-0.000205
1.7726666666666666,0.000177
1.7733333333333334,0.000677
1.774,0.000917
1.7746666666666666,0.000906
1.7753333333333334,0.000648
1.776,0.000599
1.7766666666666666,0.000683
1.7773333333333334,0.001003
1.778,0.001183
1.7786666666666666,0.0008
1.7793333333333334,0.000506
1.78,0.000178
1.7806666666666666,-0.000159
1.7813333333333334,-0.00014
1.782,0.000455
1.7826666666666666,0.000808
1.7833333333333334,0.000818
1.784,0.00065
1.7846666666666666,0.000581
1.7853333333333334,0.000162
1.786,-6e-06
1.7866666666666666,7.1e-05
1.7873333333333334,2.2e-05
1.788,-0.00013
1.7886666666666666,-0.000233
1.7893333333333334,-0.000323
1.79,-0.000105
1.7906666666666666,0.000201
1.7913333333333334,0.000369
1.792,0.000401
1.7926666666666666,9.2e-05
1.7933333333333332,-0.000386
1.794,-0.000465
1.7946666666666666,-0.000469
1.7953333333333332,-0.000631
1.796,-0.000763
1.7966666666666666,-0.000872
1.7973333333333332,-0.000908
1.798,-0.000908
1.7986666666666666,-0.000911
1.7993333333333332,-0.000481
1.8,-0.000163
1.8006666666666666,-2e-06
1.8013333333333332,-0.000119
1.802,-0.000475
1.8026666666666666,-0.000678
1.8033333333333332,-0.000702
1.804,-0.000512
1.8046666666666666,-0.000314
1.8053333333333332,4e-05
1.806,0.000538
1.8066666666666666,0.001177
1.8073333333333332,0.001585
1.808,0.001585
1.8086666666666666,0.001585
1.8093333333333332,0.001585
1.81,0.001585
1.8106666666666666,0.001585
1.8113333333333332,0.001585
1.812,0.001585
1.8126666666666666,0.001585
1.8133333333333332,0.001585
1.814,0.001585
1.8146666666666667,0.001585
1.8153333333333332,0.001585
1.816,0.001585
1.8166666666666667,0.001585
1.8173333333333332,0.001585
1.818,0.001585
1.8186666666666667,0.001309
1.8193333333333332,0.000837
1.82,0.000296
1.8206666666666667,-0.000166
1.8213333333333332,-0.000464
1.822,-0.000567
1.8226666666666667,-0.000739
1.8233333333333333,-0.000866
1.824,-0.000895
1.8246666666666667,-0.000905
1.8253333333333333,-0.000909
1.826,-0.000913
1.8266666666666667,-0.000913
1.8273333333333333,-0.000913
1.828,-0.000911
1.8286666666666667,-0.000915
1.8293333333333333,-0.000913
1.83,-0.000915
1.8306666666666667,-0.000908
1.8313333333333333,-0.000912
1.832,-0.000915
1.8326666666666667,-0.000914
1.8333333333333333,-0.0003
1.834,7.7e-05
1.8346666666666667,0.000363
1.8353333333333333,0.000529
1.836,0.000459
1.8366666666666667,-0.000174
1.8373333333333333,-0.000723
1.838,-0.000861
1.8386666666666667,-0.000901
1.8393333333333333,-0.000906
1.84,-0.000914
1.8406666666666667,-0.000913
1.8413333333333333,-0.000914
1.842,-0.000914
1.8426666666666667,-0.000915
1.8433333333333333,-0.000913
1.844,-0.000912
1.8446666666666667,-0.000911
1.8453333333333333,-0.000905
1.846,-0.000914
1.8466666666666667,-0.000911
1.8473333333333333,-0.000915
1.848,-0.000914
1.8486666666666667,-0.000877
1.8493333333333333,-8.2e-05
1.85,0.000223
1.8506666666666667,-0.000469
1.8513333333333333,-0.000546
1.852,-0.000366
1.8526666666666667,-0.000123
1.8533333333333333,-0.000237
1.854,-0.000155
1.8546666666666667,0.000504
1.8553333333333333,0.001397
1.856,0.001585
1.8566666666666667,0.001585
1.8573333333333333,0.001585
1.858,0.001585
1.8586666666666667,0.001585
1.8593333333333333,0.001585
1.86,0.001585
1.8606666666666667,0.001585
1.8613333333333333,0.001585
1.862,0.001432
1.8626666666666667,0.000886
1.8633333333333333,0.000763
1.864,0.000947
1.8646666666666667,0.001374
1.8653333333333333,0.001585
1.866,0.001565
1.8666666666666667,0.000982
1.8673333333333333,0.000594
1.868,0.000203
1.8686666666666667,-9e-05
1.8693333333333333,-0.000252
1.87,-0.000291
1.8706666666666667,-0.000339
1.8713333333333333,-0.000535
1.872,-0.000798
1.8726666666666667,-0.000879
1.8733333333333333,-0.000821
1.874,-0.000861
1.8746666666666667,-0.0009
1.8753333333333333,-0.000906
1.876,-0.000912
1.8766666666666667,-0.000908
1.8773333333333333,-0.000915
1.878,-0.000913
1.8786666666666667,-0.000907
1.8793333333333333,-0.000913
1.88,-0.000912
1.8806666666666667,-0.00091
1.8813333333333333,-0.000911
1.882,-0.000602
1.8826666666666667,7.6e-05
1.8833333333333333,0.000395
1.884,0.000904
1.8846666666666667,0.001585
1.8853333333333333,0.001585
1.886,0.001585
1.8866666666666667,0.001585
1.8873333333333333,0.001585
1.888,0.001234
1.8886666666666667,0.000758
1.8893333333333333,0.000899
1.89,0.000884
1.8906666666666667,0.000392
1.8913333333333333,-0.00019
1.892,-0.000482
1.8926666666666667,-0.00079
1.8933333333333333,-0.000737
1.894,-0.00038
1.8946666666666667,-1.8e-05
1.8953333333333333,0.000553
1.896,0.001506
1.8966666666666667,0.001585
1.8973333333333333,0.001585
1.898,0.001585
1.8986666666666667,0.001585
1.8993333333333333,0.001585
1.9,0.001585
1.9006666666666667,0.001585
1.9013333333333333,0.001585
1.902,0.001585
1.9026666666666667,0.001585
1.9033333333333333,0.001585
1.904,0.001585
1.9046666666666667,0.001585
1.9053333333333333,0.001585
1.906,0.001585
1.9066666666666667,0.001165
1.9073333333333333,0.000821
1.908,0.000412
1.9086666666666667,3.6e-05
1.9093333333333333,-0.000436
1.91,-0.000777
1.9106666666666667,-0.000872
1.9113333333333333,-0.000897
1.912,-0.000913
1.9126666666666667,-0.000909
1.9133333333333333,-0.000915
1.914,-0.000913
1.9146666666666667,-0.000915
1.9153333333333333,-0.000915
1.916,-0.000915
1.9166666666666667,-0.000912
1.9173333333333333,-0.00091
1.918,-0.000915
1.9186666666666667,-0.000913
1.9193333333333333,-0.000908
1.92,-0.000909
1.9206666666666667,-0.000287
1.9213333333333333,0.000294
1.922,0.000425
1.9226666666666667,0.000142
1.9233333333333333,-3e-05
1.924,9.7e-05
1.9246666666666667,0.000211
1.9253333333333333,0.000305
1.926,0.00039
1.9266666666666667,0.000537
1.9273333333333333,0.000395
1.928,-4e-05
1.9286666666666668,-0.000413
1.9293333333333333,-0.000425
1.93,-0.000574
1.9306666666666668,-0.000288
1.9313333333333333,-1.1e-05
1.932,0.000239
1.9326666666666668,0.000169
1.9333333333333333,0.000136
1.934,0.000432
1.9346666666666668,0.000752
1.9353333333333333,0.001007
1.936,0.001261
1.9366666666666668,0.000904
1.9373333333333334,0.000304
1.938,0.000199
1.9386666666666668,0.000339
1.9393333333333334,0.000111
1.94,-7.4e-05
1.9406666666666668,-0.000426
1.9413333333333334,-0.000772
1.942,-0.000876
1.9426666666666668,-0.000895
1.9433333333333334,-0.000704
1.944,-0.000447
1.9446666666666668,-0.000602
1.9453333333333334,-0.000347
1.946,0.00028
1.9466666666666668,-8.9e-05
1.9473333333333334,-0.000701
1.948,-0.00086
1.9486666666666668,-0.000898
1.9493333333333334,-0.000911
1.95,-0.000912
1.9506666666666668,-0.000911
1.9513333333333334,-0.000914
1.952,-0.000831
1.9526666666666668,-9e-05
1.9533333333333334,0.000604
1.954,0.000943
1.9546666666666668,0.001061
1.9553333333333334,0.001253
1.956,0.001363
1.9566666666666668,0.001585
1.9573333333333334,0.001585
1.958,0.001585
1.9586666666666666,0.001585
1.9593333333333334,0.001585
1.96,0.001585
1.9606666666666666,0.001585
1.9613333333333334,0.001585
1.962,0.001526
1.9626666666666666,0.001221
1.9633333333333334,0.000993
1.964,0.000405
1.9646666666666666,-0.000187
1.9653333333333334,-0.000704
1.966,-0.000855
1.9666666666666666,-0.000902
1.9673333333333334,-0.000907
1.968,-0.00091
1.9686666666666666,-0.00091
1.9693333333333334,-0.000911
1.97,-0.000915
1.9706666666666666,-0.000697
1.9713333333333334,-0.000614
1.972,-0.000562
1.9726666666666666,0.000369
1.9733333333333334,0.001183
1.974,0.001585
1.9746666666666666,0.001585
1.9753333333333334,0.001585
1.976,0.001534
1.9766666666666666,0.001585
1.9773333333333334,0.001585
1.978,0.001585
1.9786666666666666,0.00121
1.9793333333333334,0.000876
1.98,0.000838
1.9806666666666666,0.000807
1.9813333333333334,0.000694
1.982,0.000836
1.9826666666666666,0.00095
1.9833333333333334,0.000625
1.984,0.000258
1.9846666666666666,0.000217
1.9853333333333334,0.000429
1.986,0.000633
1.9866666666666666,0.000208
1.9873333333333334,-0.000201
1.988,-0.000299
1.9886666666666666,-0.00048
1.9893333333333334,-0.000347
1.99,-0.00027
1.9906666666666666,-4.8e-05
1.9913333333333334,0.00039
1.992,0.000246
1.9926666666666666,2.3e-05
1.9933333333333334,0.000112
1.994,0.000602
1.9946666666666666,0.000993
1.9953333333333334,0.000772
1.996,0.000102
1.9966666666666666,-0.000637
1.9973333333333334,-0.000839
1.998,-0.000888
1.9986666666666666,-0.000905
1.9993333333333334,-0.000908
2.0,-0.000915
2.0006666666666666,-0.000791
2.001333333333333,-9.9e-05
2.002,0.000855
2.002666666666667,0.001538
2.0033333333333334,0.001433
2.004,0.001119
2.0046666666666666,0.001159
2.005333333333333,0.000826
2.006,0.000434
2.006666666666667,0.000327
2.0073333333333334,6.6e-05
2.008,-0.000265
2.0086666666666666,-0.000316
2.009333333333333,-0.000101
2.01,-3.2e-05
2.010666666666667,-0.000403
2.0113333333333334,-0.000734
2.012,-0.000856
2.0126666666666666,-0.000896
2.013333333333333,-0.000913
2.014,-0.00091
2.014666666666667,-0.00091
2.0153333333333334,-0.000913
2.016,-0.000912
2.0166666666666666,-0.000913
2.017333333333333,-0.000915
2.018,-0.000915
2.018666666666667,-0.000915
2.0193333333333334,-0.000914
2.02,-0.000913
2.0206666666666666,-0.000905
2.021333333333333,-0.000455
2.022,-0.000588
2.022666666666667,-0.000828
2.0233333333333334,-0.00089
2.024,-0.000908
2.0246666666666666,-0.000447
2.025333333333333,-0.000141
2.026,-0.000541
2.026666666666667,-0.000742
2.0273333333333334,-0.000795
2.028,-0.00068
2.0286666666666666,-0.000242
2.029333333333333,0.00015
2.03,0.000123
2.030666666666667,-0.000199
2.0313333333333334,-0.000309
2.032,-0.000239
2.0326666666666666,5e-05
2.033333333333333,0.000565
2.034,0.00121
2.034666666666667,0.00141
2.0353333333333334,0.001457
2.036,0.00128
2.0366666666666666,0.001395
2.037333333333333,0.001409
2.038,0.001136
2.038666666666667,0.000591
2.0393333333333334,0.000142
2.04,-0.000228
2.0406666666666666,-0.000392
2.041333333333333,-0.0005
2.042,-0.000506
2.042666666666667,-0.000667
2.0433333333333334,-0.000815
2.044,-0.00088
2.0446666666666666,-0.000904
2.0453333333333332,-0.000906
2.046,-0.000803
2.046666666666667,-0.000102
2.0473333333333334,0.000532
2.048,0.000735
2.0486666666666666,0.00068
2.0493333333333332,0.000374
2.05,0.000359
2.050666666666667,0.000487
2.0513333333333335,0.00085
2.052,0.001421
2.0526666666666666,0.001585
2.0533333333333332,0.001585
2.054,0.001585
2.054666666666667,0.001585
2.0553333333333335,0.001585
2.056,0.001585
2.0566666666666666,0.001585
2.0573333333333332,0.001264
2.058,0.001482
2.058666666666667,0.001253
2.0593333333333335,0.000638
2.06,0.00063
2.0606666666666666,0.000848
2.0613333333333332,0.000563
2.062,-0.000135
2.062666666666667,-0.000685
2.0633333333333335,-0.0007
2.064,-0.000634
2.0646666666666667,-0.000797
2.0653333333333332,-0.000458
2.066,-0.000367
2.066666666666667,-0.000749
2.0673333333333335,-0.000867
2.068,-0.000904
2.0686666666666667,-0.000801
2.0693333333333332,-0.000826
2.07,-0.000887
2.070666666666667,-0.000909
2.0713333333333335,-0.000912
2.072,-0.000698
2.0726666666666667,-0.000452
2.0733333333333333,-0.000747
2.074,-0.000871
2.074666666666667,-0.000807
2.0753333333333335,-0.000862
2.076,-0.00088
2.0766666666666667,-0.000641
2.0773333333333333,-0.000571
2.078,-0.000761
2.078666666666667,-0.000875
2.0793333333333335,-0.000905
2.08,-0.000911
2.0806666666666667,-0.000908
2.0813333333333333,-0.000254
2.082,0.000708
2.082666666666667,0.001503
2.0833333333333335,0.001585
2.084,0.001585
2.0846666666666667,0.001585
2.0853333333333333,0.001585
2.086,0.001585
2.0866666666666664,0.001585
2.0873333333333335,0.001585
2.088,0.001525
2.0886666666666667,0.001186
2.0893333333333333,0.001291
2.09,0.001585
2.0906666666666665,0.001493
2.0913333333333335,0.000994
2.092,0.000865
2.0926666666666667,0.001131
2.0933333333333333,0.001374
2.094,0.00147
2.0946666666666665,0.00139
2.0953333333333335,0.001101
2.096,0.000777
2.0966666666666667,0.000557
2.0973333333333333,0.000246
2.098,-0.000189
2.0986666666666665,-0.000198
2.0993333333333335,-0.000458
2.1,-0.000773
2.1006666666666667,-0.000872
2.1013333333333333,-0.000903
2.102,-0.000913
2.1026666666666665,-0.000913
2.1033333333333335,-0.000913
2.104,-0.000915
2.1046666666666667,-0.000915
2.1053333333333333,-0.000914
2.106,-0.000909
2.1066666666666665,-0.000915
2.1073333333333335,-0.000848
2.108,-0.000588
2.1086666666666667,-0.000699
2.1093333333333333,-0.000532
2.11,-0.000129
2.1106666666666665,0.000121
2.1113333333333335,7.6e-05
2.112,-0.000217
2.1126666666666667,-0.000668
2.1133333333333333,-0.000803
2.114,-0.000795
2.1146666666666665,-0.000661
2.1153333333333335,-0.000573
2.116,-0.000618
2.1166666666666667,-0.000463
2.1173333333333333,-0.000651
2.118,-0.000845
2.1186666666666665,-0.000749
2.1193333333333335,-0.000496
2.12,-4.1e-05
2.1206666666666667,0.000269
2.1213333333333333,0.000675
2.122,0.000933
2.1226666666666665,0.000738
2.1233333333333335,0.000357
2.124,0.000138
2.1246666666666667,0.000296
2.1253333333333333,0.000428
2.126,0.000299
2.1266666666666665,0.000324
2.1273333333333335,0.000303
2.128,5.4e-05
2.1286666666666667,-0.000168
2.1293333333333333,-0.000347
2.13,-0.00043
2.1306666666666665,-0.00038
2.1313333333333335,-0.00025
2.132,-0.000127
2.1326666666666667,4.5e-05
2.1333333333333333,0.000407
2.134,0.000782
2.1346666666666665,0.000871
2.1353333333333335,0.000453
2.136,-0.000408
2.1366666666666667,-0.000783
2.1373333333333333,-0.000878
2.138,-0.000905
2.1386666666666665,-0.000909
2.1393333333333335,-0.000911
2.14,-0.000912
2.1406666666666667,-0.000915
2.1413333333333333,-0.000911
2.142,-0.00037
2.1426666666666665,0.000278
2.1433333333333335,0.001045
2.144,0.001585
2.1446666666666667,0.001585
2.1453333333333333,0.001585
2.146,0.001585
2.1466666666666665,0.001585
2.1473333333333335,0.001585
2.148,0.001585
2.1486666666666667,0.001585
2.1493333333333333,0.001585
2.15,0.001585
2.1506666666666665,0.001585
2.1513333333333335,0.001585
2.152,0.001246
2.1526666666666667,0.001072
2.1533333333333333,0.000467
2.154,0.000362
2.1546666666666665,0.000208
2.1553333333333335,-0.000438
2.156,-0.000784
2.1566666666666667,-0.000872
2.1573333333333333,-0.000899
2.158,-0.00091
2.1586666666666665,-0.000911
2.1593333333333335,-0.000912
2.16,-0.000914
2.1606666666666667,-0.000912
2.1613333333333333,-0.00091
2.162,-0.000909
2.1626666666666665,-0.000915
2.1633333333333336,-0.000913
2.164,-0.000911
2.1646666666666667,-0.000915
2.1653333333333333,-0.000911
2.166,-0.000915
2.1666666666666665,-0.000493
2.167333333333333,0.000437
2.168,0.001297
2.1686666666666667,0.001585
2.1693333333333333,0.001585
2.17,0.001585
2.1706666666666665,0.001585
2.171333333333333,0.001585
2.172,0.001447
2.1726666666666667,0.001034
2.1733333333333333,0.000934
2.174,0.000726
2.1746666666666665,0.000298
2.175333333333333,-0.000192
2.176,-0.000513
2.1766666666666667,-0.000777
2.1773333333333333,-0.000874
2.178,-0.000899
2.1786666666666665,-0.000367
2.179333333333333,8e-05
2.18,0.000813
2.1806666666666668,0.001371
2.1813333333333333,0.001585
2.182,0.001585
2.1826666666666665,0.00155
2.183333333333333,0.001244
2.184,0.00097
2.1846666666666668,0.000818
2.1853333333333333,0.001073
2.186,0.00098
2.1866666666666665,0.000239
2.187333333333333,-0.00057
2.188,-0.000808
2.1886666666666668,-0.00088
2.1893333333333334,-0.000904
2.19,-0.000911
2.1906666666666665,-0.000913
2.191333333333333,-0.000911
2.192,-0.000907
2.1926666666666668,-0.00091
2.1933333333333334,-0.000867
2.194,-0.000543
2.1946666666666665,-1.5e-05
2.195333333333333,-0.000156
2.196,-0.000609
2.1966666666666668,-0.000818
2.1973333333333334,-0.000889
2.198,-0.000909
2.1986666666666665,-0.000913
2.199333333333333,-0.000914
2.2,-0.000913
2.2006666666666668,-0.000915
2.2013333333333334,-0.000913
2.202,-0.000724
2.2026666666666666,-0.000394
2.203333333333333,7e-06
2.204,3.7e-05
2.2046666666666668,9.7e-05
2.2053333333333334,0.000381
2.206,0.000706
2.2066666666666666,0.00123
2.207333333333333,0.001455
2.208,0.001585
2.208666666666667,0.001323
2.2093333333333334,0.000797
2.21,0.000424
2.2106666666666666,0.000252
2.211333333333333,0.000322
2.212,0.000472
2.212666666666667,0.000639
2.2133333333333334,0.00074
2.214,0.000862
2.2146666666666666,0.00089
2.215333333333333,0.000989
2.216,0.000858
2.216666666666667,0.00043
2.2173333333333334,0.000191
2.218,7.8e-05
2.2186666666666666,9.2e-05
2.219333333333333,0.000426
2.22,0.000598
2.220666666666667,0.000573
2.2213333333333334,0.000623
2.222,0.000892
2.2226666666666666,0.001338
2.223333333333333,0.001585
2.224,0.001585
2.224666666666667,0.001466
2.2253333333333334,0.000943
2.226,0.000882
2.2266666666666666,0.000865
2.227333333333333,0.0005
2.228,0.000111
2.228666666666667,-0.00027
2.2293333333333334,-0.00047
2.23,-0.000256
2.2306666666666666,0.000152
2.231333333333333,-0.000108
2.232,-0.00038
2.232666666666667,-0.000632
2.2333333333333334,-0.000837
2.234,-0.000892
2.2346666666666666,-0.000905
2.235333333333333,-0.000915
2.236,-0.00091
2.236666666666667,-0.000886
2.2373333333333334,-0.000609
2.238,-0.000304
2.2386666666666666,-0.000293
2.239333333333333,-0.000301
2.24,-0.000318
2.240666666666667,-0.000368
2.2413333333333334,-0.00038
2.242,1.2e-05
2.2426666666666666,0.000927
2.243333333333333,0.001585
2.244,0.001585
2.244666666666667,0.001585
2.2453333333333334,0.001585
2.246,0.001585
2.2466666666666666,0.001585
2.247333333333333,0.001585
2.248,0.001372
2.248666666666667,0.001166
2.2493333333333334,0.001228
2.25,0.001206
2.2506666666666666,0.001285
2.251333333333333,0.001272
2.252,0.001119
2.252666666666667,0.001048
2.2533333333333334,0.000575
2.254,0.000361
2.2546666666666666,9e-05
2.255333333333333,-3.6e-05
2.256,-0.000118
2.256666666666667,-1e-05
2.2573333333333334,0.000109
2.258,0.000266
2.2586666666666666,0.000294
2.259333333333333,6.5e-05
2.26,-0.000132
2.260666666666667,-0.000376
2.2613333333333334,-0.00067
2.262,-0.000845
2.2626666666666666,-0.00074
2.263333333333333,-0.000837
2.264,-0.000892
2.264666666666667,-0.000795
2.2653333333333334,-0.000808
2.266,-0.000885
2.2666666666666666,-0.000907
2.267333333333333,-0.000784
2.268,-0.000584
2.268666666666667,-0.000377
2.2693333333333334,-0.00049
2.27,-0.0005
2.2706666666666666,-0.000348
2.271333333333333,-0.000317
2.272,-0.000505
2.272666666666667,-0.000723
2.2733333333333334,-0.000767
2.274,-0.000493
2.2746666666666666,-0.0002
2.275333333333333,4.4e-05
2.276,3.5e-05
2.276666666666667,-9.9e-05
2.2773333333333334,2.2e-05
2.278,9.7e-05
2.2786666666666666,0.00037
2.279333333333333,0.000738
2.28,0.000963
2.280666666666667,0.001113
2.2813333333333334,0.000924
2.282,0.000677
2.2826666666666666,0.000364
2.283333333333333,6e-05
2.284,-8.7e-05
2.284666666666667,-0.000184
2.2853333333333334,-7.4e-05
2.286,-1.2e-05
2.2866666666666666,-0.000171
2.287333333333333,-0.000494
2.288,-0.0008
2.288666666666667,-0.000881
2.2893333333333334,-0.000903
2.29,-0.00091
2.2906666666666666,-0.000911
2.291333333333333,-0.000909
2.292,-0.000911
2.292666666666667,-0.000912
2.2933333333333334,-0.00078
2.294,-0.000541
2.2946666666666666,-0.000425
2.2953333333333332,-0.000432
2.296,-0.000411
2.296666666666667,-0.000273
2.2973333333333334,-0.000323
2.298,-0.000405
2.2986666666666666,-0.000576
2.2993333333333332,-0.000508
2.3,-0.000475
2.300666666666667,-0.00048
2.3013333333333335,-0.000393
2.302,-0.000287
2.3026666666666666,-0.000264
2.3033333333333332,-0.000456
2.304,-0.000743
2.304666666666667,-0.000772
2.3053333333333335,-0.000671
2.306,-0.000511
2.3066666666666666,-0.00045
2.3073333333333332,-0.000479
2.308,-0.000442
2.308666666666667,-0.000338
2.3093333333333335,-0.00019
2.31,3.6e-05
2.3106666666666666,0.000594
2.3113333333333332,0.000771
2.312,0.000385
2.312666666666667,0.000219
2.3133333333333335,0.000136
2.314,0.000299
2.3146666666666667,0.000763
2.3153333333333332,0.001196
2.316,0.001277
2.316666666666667,0.001177
2.3173333333333335,0.00096
2.318,0.000813
2.3186666666666667,0.000672
2.3193333333333332,0.000747
2.32,0.000883
2.320666666666667,0.000858
2.3213333333333335,0.000818
2.322,0.000694
2.3226666666666667,0.000501
2.3233333333333333,0.000537
2.324,0.000815
2.324666666666667,0.001037
2.3253333333333335,0.001153
2.326,0.00115
2.3266666666666667,0.00105
2.3273333333333333,0.000879
2.328,0.000992
2.328666666666667,0.000989
2.3293333333333335,0.000887
2.33,0.000855
2.3306666666666667,0.000611
2.3313333333333333,0.000375
2.332,0.000221
2.332666666666667,0.000368
2.3333333333333335,0.000418
2.334,0.000343
2.3346666666666667,0.000409
2.3353333333333333,0.000507
2.336,0.000477
2.3366666666666664,0.00035
2.3373333333333335,0.00031
2.338,0.000209
2.3386666666666667,0.000151
2.3393333333333333,0.00023
2.34,0.000207
2.3406666666666665,0.000225
2.3413333333333335,0.000117
2.342,3.1e-05
2.3426666666666667,7e-06
2.3433333333333333,1.7e-05
2.344,-0.000168
2.3446666666666665,-0.000435
2.3453333333333335,-0.000423
2.346,-0.000352
2.3466666666666667,-0.000618
2.3473333333333333,-0.000832
2.348,-0.000889
2.3486666666666665,-0.000837
2.3493333333333335,-0.000604
2.35,-0.000352
2.3506666666666667,-0.000278
2.3513333333333333,-0.000285
2.352,-0.000334
2.3526666666666665,-0.000443
2.3533333333333335,-0.000643
2.354,-0.00056
2.3546666666666667,-0.000122
2.3553333333333333,0.000215
2.356,0.000386
2.3566666666666665,0.000625
2.3573333333333335,0.000744
2.358,0.000765
2.3586666666666667,0.000699
2.3593333333333333,0.000654
2.36,0.000745
2.3606666666666665,0.000622
2.3613333333333335,0.000408
2.362,0.000322
2.3626666666666667,0.000304
2.3633333333333333,0.000216
2.364,0.000141
2.3646666666666665,1.6e-05
2.3653333333333335,-0.000141
2.366,-0.000241
2.3666666666666667,-0.000325
2.3673333333333333,-0.000379
2.368,-0.000358
2.3686666666666665,-0.00039
2.3693333333333335,-0.000617
2.37,-0.000652
2.3706666666666667,-0.000682
2.3713333333333333,-0.000751
2.372,-0.000863
2.3726666666666665,-0.000896
2.3733333333333335,-0.000908
2.374,-0.000863
2.3746666666666667,-0.000824
2.3753333333333333,-0.00089
2.376,-0.000905
2.3766666666666665,-0.000638
2.3773333333333335,-0.000362
2.378,-0.000364
2.3786666666666667,-0.000435
2.3793333333333333,-0.000319
2.38,-0.000219
2.3806666666666665,-0.000259
2.3813333333333335,-0.000362
2.382,-0.000309
2.3826666666666667,-0.000168
2.3833333333333333,-0.00015
2.384,-0.000131
2.3846666666666665,-1.5e-05
2.3853333333333335,0.000221
2.386,0.000344
2.3866666666666667,0.000319
2.3873333333333333,9.5e-05
2.388,-0.00016
2.3886666666666665,-7e-05
2.3893333333333335,-7.1e-05
2.39,-0.000298
2.3906666666666667,-0.000385
2.3913333333333333,-0.000416
2.392,-0.000466
2.3926666666666665,-0.000381
2.3933333333333335,-0.000353
2.394,-0.0003
2.3946666666666667,-0.000207
2.3953333333333333,-4e-06
2.396,0.000319
2.3966666666666665,0.00036
2.3973333333333335,0.000264
2.398,0.000281
2.3986666666666667,0.000348
2.3993333333333333,0.000354
2.4,0.000219
2.4006666666666665,0.000235
2.4013333333333335,0.000332
2.402,0.000422
2.4026666666666667,0.000369
2.4033333333333333,0.000213
2.404,0.00021
2.4046666666666665,0.000307
2.4053333333333335,0.000364
2.406,0.000372
2.4066666666666667,0.000165
2.4073333333333333,-0.000224
2.408,-0.000276
2.4086666666666665,-0.000466
2.4093333333333335,-0.00067
2.41,-0.000837
2.4106666666666667,-0.000676
2.4113333333333333,-0.000428
2.412,-0.000399
2.4126666666666665,-0.000401
2.4133333333333336,-0.000352
2.414,-0.000411
2.4146666666666667,-0.000477
2.4153333333333333,-0.000455
2.416,-0.00027
2.4166666666666665,-0.000155
2.417333333333333,-0.000108
2.418,-9.8e-05
2.4186666666666667,-4.3e-05
2.4193333333333333,8.1e-05
2.42,0.000324
2.4206666666666665,0.000504
2.421333333333333,0.000517
2.422,0.000525
2.4226666666666667,0.000526
2.4233333333333333,0.000595
2.424,0.00071
2.4246666666666665,0.000681
2.425333333333333,0.000733
2.426,0.000741
2.4266666666666667,0.000601
2.4273333333333333,0.000499
2.428,0.000404
2.4286666666666665,0.000232
2.429333333333333,0.000147
2.43,0.00012
2.4306666666666668,-8.9e-05
2.4313333333333333,-0.000204
2.432,-0.000242
2.4326666666666665,-0.00019
2.433333333333333,-0.000396
2.434,-0.000174
2.4346666666666668,0.000388
2.4353333333333333,0.000851
2.436,0.000844
2.4366666666666665,0.000783
2.437333333333333,0.000736
2.438,0.000601
2.4386666666666668,0.000636
2.4393333333333334,0.000448
2.44,0.00041
2.4406666666666665,0.000418
2.441333333333333,0.000134
2.442,1.7e-05
2.4426666666666668,-1.1e-05
2.4433333333333334,-8.8e-05
2.444,-0.000182
2.4446666666666665,-0.000358
2.445333333333333,-0.000442
2.446,-0.000651
2.4466666666666668,-0.000841
2.4473333333333334,-0.000674
2.448,-0.000522
2.4486666666666665,-0.000587
2.449333333333333,-0.000812
2.45,-0.000883
2.4506666666666668,-0.000905
2.4513333333333334,-0.000806
2.452,-0.000708
2.4526666666666666,-0.000621
2.453333333333333,-0.000622
2.454,-0.000574
2.4546666666666668,-0.000315
2.4553333333333334,0.0001
2.456,0.000402
2.4566666666666666,0.00055
2.457333333333333,0.000495
2.458,0.000243
2.458666666666667,0.00022
2.4593333333333334,0.000376
2.46,0.000225
2.4606666666666666,3.4e-05
2.461333333333333,-0.000114
2.462,-0.000204
2.462666666666667,-0.00024
2.4633333333333334,-0.000332
2.464,-0.00048
2.4646666666666666,-0.000671
2.465333333333333,-0.00084
2.466,-0.000889
2.466666666666667,-0.00091
2.4673333333333334,-0.00091
2.468,-0.000912
2.4686666666666666,-0.000908
2.469333333333333,-0.000913
2.47,-0.000913
2.470666666666667,-0.000914
2.4713333333333334,-0.000728
2.472,-0.000557
2.4726666666666666,-0.000358
2.473333333333333,-0.000215
2.474,-0.000169
2.474666666666667,0.0
2.4753333333333334,0.00019
2.476,0.000342
2.4766666666666666,0.000531
2.477333333333333,0.000807
2.478,0.001075
2.478666666666667,0.001283
2.4793333333333334,0.001438
2.48,0.001488
2.4806666666666666,0.001296
2.481333333333333,0.001062
2.482,0.000886
2.482666666666667,0.000705
2.4833333333333334,0.000548
2.484,0.000387
2.4846666666666666,0.000246
2.485333333333333,0.000121
2.486,8e-06
2.486666666666667,-0.000103
2.4873333333333334,-0.000247
2.488,-0.000419
2.4886666666666666,-0.000519
2.489333333333333,-0.000565
2.49,-0.000587
2.490666666666667,-0.000554
2.4913333333333334,-0.000519
2.492,-0.000472
2.4926666666666666,-0.000417
2.493333333333333,-0.00044
2.494,-0.000437
2.494666666666667,-0.000148
2.4953333333333334,0.000142
2.496,0.000312
2.4966666666666666,0.000394
2.497333333333333,0.000454
2.498,0.000515
2.498666666666667,0.00057
2.4993333333333334,0.000625
2.5,0.000581
2.5006666666666666,0.000505
2.501333333333333,0.000448
2.502,0.00039
2.502666666666667,0.000418
2.5033333333333334,0.000356
2.504,0.000219
2.5046666666666666,1.6e-05
2.505333333333333,-5.6e-05
2.506,-4.9e-05
2.506666666666667,-0.000155
2.5073333333333334,-0.000332
2.508,-0.000481
2.5086666666666666,-0.000556
2.509333333333333,-0.000657
2.51,-0.000783
2.510666666666667,-0.000841
2.5113333333333334,-0.000881
2.512,-0.000907
2.5126666666666666,-0.000911
2.513333333333333,-0.000838
2.514,-0.000637
2.514666666666667,-0.00037
2.5153333333333334,-0.000217
2.516,-3.6e-05
2.5166666666666666,0.000213
2.517333333333333,0.000376
2.518,0.00044
2.518666666666667,0.000406
2.5193333333333334,0.00037
2.52,0.000357
2.5206666666666666,0.000328
2.521333333333333,0.000208
2.522,0.000153
2.522666666666667,0.000175
2.5233333333333334,0.000211
2.524,0.000351
2.5246666666666666,0.00017
2.525333333333333,-0.0
2.526,-4.7e-05
2.526666666666667,-0.000139
2.5273333333333334,-0.000185
2.528,-0.000229
2.5286666666666666,-0.00035
2.529333333333333,-0.000507
2.53,-0.000595
2.530666666666667,-0.000566
2.5313333333333334,-0.000583
2.532,-0.000618
2.5326666666666666,-0.000598
2.533333333333333,-0.000486
2.534,-0.000366
2.534666666666667,-0.000264
2.5353333333333334,-0.000165
2.536,0.000127
2.5366666666666666,0.000399
2.537333333333333,0.00054
2.538,0.000626
2.538666666666667,0.000558
2.5393333333333334,0.000413
2.54,0.000348
2.5406666666666666,0.000316
2.541333333333333,0.000208
2.542,0.000135
2.542666666666667,7.3e-05
2.5433333333333334,8e-06
2.544,-7.7e-05
2.5446666666666666,-0.000211
2.5453333333333332,-0.000308
2.546,-0.000203
2.546666666666667,-3.8e-05
2.5473333333333334,-8.3e-05
2.548,-0.00019
2.5486666666666666,-0.000334
2.5493333333333332,-0.00049
2.55,-0.000604
2.550666666666667,-0.00061
2.5513333333333335,-0.000601
2.552,-0.000493
2.5526666666666666,-0.000309
2.5533333333333332,-0.000189
2.554,-0.00012
2.554666666666667,-5e-05
2.5553333333333335,-5.1e-05
2.556,-7.1e-05
2.5566666666666666,-7.5e-05
2.5573333333333332,-2.8e-05
2.558,4.1e-05
2.558666666666667,4e-06
2.5593333333333335,-7.6e-05
2.56,-2.8e-05
2.5606666666666666,4.3e-05
2.5613333333333332,9e-06
2.562,0.0
2.562666666666667,3.9e-05
2.5633333333333335,-5e-06
2.564,-9e-06
2.5646666666666667,-4e-05
2.5653333333333332,-3.3e-05
2.566,-2.4e-05
2.566666666666667,-1.9e-05
2.5673333333333335,-0.00012
2.568,-0.000272
2.5686666666666667,-0.000298
2.5693333333333332,-0.000287
2.57,-0.00038
2.570666666666667,-0.000499
2.5713333333333335,-0.000602
2.572,-0.000609
2.5726666666666667,-0.000532
2.5733333333333333,-0.000377
2.574,-0.000177
2.574666666666667,-4.4e-05
2.5753333333333335,4.6e-05
2.576,0.000138
2.5766666666666667,0.000286
2.5773333333333333,0.000476
2.578,0.000539
2.578666666666667,0.000493
2.5793333333333335,0.000414
2.58,0.000358
2.5806666666666667,0.000336
2.5813333333333333,0.000273
2.582,0.000194
2.582666666666667,0.000157
2.5833333333333335,0.000133
2.584,8.6e-05
2.5846666666666667,-2.2e-05
2.5853333333333333,-0.000133
2.586,-0.000249
2.5866666666666664,-0.000384
2.5873333333333335,-0.000522
2.588,-0.000646
2.5886666666666667,-0.000772
2.5893333333333333,-0.000802
2.59,-0.000875
2.5906666666666665,-0.000902
2.5913333333333335,-0.00085
2.592,-0.000764
2.5926666666666667,-0.00065
2.5933333333333333,-0.000535
2.594,-0.000337
2.5946666666666665,-8.1e-05
2.5953333333333335,0.000131
2.596,0.000271
2.5966666666666667,0.000338
2.5973333333333333,0.000446
2.598,0.000575
2.5986666666666665,0.000635
2.5993333333333335,0.00068
2.6,0.000688
2.6006666666666667,0.000683
2.6013333333333333,0.000611
2.602,0.000532
2.6026666666666665,0.000546
2.6033333333333335,0.000552
2.604,0.000542
2.6046666666666667,0.000455
2.6053333333333333,0.000342
2.606,0.000251
2.6066666666666665,0.000112
2.6073333333333335,1.2e-05
2.608,-9.8e-05
2.6086666666666667,-0.000236
2.6093333333333333,-0.000339
2.61,-0.000406
2.6106666666666665,-0.000437
2.6113333333333335,-0.000463
2.612,-0.00048
2.6126666666666667,-0.000491
2.6133333333333333,-0.000482
2.614,-0.000297
2.6146666666666665,-0.000143
2.6153333333333335,-3.5e-05
2.616,2e-05
2.6166666666666667,3.6e-05
2.6173333333333333,6.1e-05
2.618,0.000126
2.6186666666666665,0.000175
2.6193333333333335,0.000144
2.62,0.000153
2.6206666666666667,0.000217
2.6213333333333333,0.000181
2.622,0.000109
2.6226666666666665,0.00013
2.6233333333333335,0.000158
2.624,0.00012
2.6246666666666667,0.000111
2.6253333333333333,0.000119
2.626,8.4e-05
2.6266666666666665,2e-06
2.6273333333333335,-0.000198
2.628,-0.000359
2.6286666666666667,-0.000511
2.6293333333333333,-0.000679
2.63,-0.000806
2.6306666666666665,-0.000809
2.6313333333333335,-0.000836
2.632,-0.000815
2.6326666666666667,-0.000623
2.6333333333333333,-0.000372
2.634,-0.000198
2.6346666666666665,-9.3e-05
2.6353333333333335,-1.3e-05
2.636,0.000116
2.6366666666666667,0.000194
2.6373333333333333,0.000253
2.638,0.000332
2.6386666666666665,0.000412
2.6393333333333335,0.000406
2.64,0.000393
2.6406666666666667,0.000297
2.6413333333333333,0.000232
2.642,0.000162
2.6426666666666665,0.000109
2.6433333333333335,0.000174
2.644,0.000172
2.6446666666666667,0.00016
2.6453333333333333,0.000108
2.646,0.000127
2.6466666666666665,1.5e-05
2.6473333333333335,-9.8e-05
2.648,-0.000151
2.6486666666666667,-0.000197
2.6493333333333333,-0.00033
2.65,-0.000406
2.6506666666666665,-0.00042
2.6513333333333335,-0.00041
2.652,-0.000435
2.6526666666666667,-0.000434
2.6533333333333333,-0.000399
2.654,-0.000361
2.6546666666666665,-0.000273
2.6553333333333335,-0.000159
2.656,-7.6e-05
2.6566666666666667,-4.1e-05
2.6573333333333333,1.1e-05
2.658,9.1e-05
2.6586666666666665,0.000162
2.6593333333333335,0.000157
2.66,0.000174
2.6606666666666667,0.00013
2.6613333333333333,8.8e-05
2.662,3.7e-05
2.6626666666666665,3.5e-05
2.6633333333333336,6.7e-05
2.664,8.4e-05
2.6646666666666667,4.7e-05
2.6653333333333333,-2.7e-05
2.666,-7.6e-05
2.6666666666666665,-0.000116
2.667333333333333,-0.000179
2.668,-0.000264
2.6686666666666667,-0.000393
2.6693333333333333,-0.000497
2.67,-0.000568
2.6706666666666665,-0.00057
2.671333333333333,-0.000583
2.672,-0.000609
2.6726666666666667,-0.000569
2.6733333333333333,-0.000466
2.674,-0.000324
2.6746666666666665,-0.000199
2.675333333333333,-0.000102
2.676,-3.2e-05
2.6766666666666667,7.2e-05
2.6773333333333333,0.000191
2.678,0.000304
2.6786666666666665,0.000348
2.679333333333333,0.000369
2.68,0.000401
2.6806666666666668,0.000433
2.6813333333333333,0.000457
2.682,0.000472
2.6826666666666665,0.000554
2.683333333333333,0.000578
2.684,0.000515
2.6846666666666668,0.000442
2.6853333333333333,0.000364
2.686,0.000304
2.6866666666666665,0.000199
2.687333333333333,5.6e-05
2.688,-6.6e-05
2.6886666666666668,-0.000167
2.6893333333333334,-0.000265
2.69,-0.000301
2.6906666666666665,-0.000312
2.691333333333333,-0.000318
2.692,-0.000376
2.6926666666666668,-0.000461
2.6933333333333334,-0.000445
2.694,-0.000289
2.6946666666666665,-0.000147
2.695333333333333,-3.3e-05
2.696,5.8e-05
2.6966666666666668,0.000143
2.6973333333333334,0.0002
2.698,0.000253
2.6986666666666665,0.000292
2.699333333333333,0.000317
2.7,0.000342
2.7006666666666668,0.000356
2.7013333333333334,0.000354
2.702,0.000326
2.7026666666666666,0.00032
2.703333333333333,0.000295
2.704,0.000266
2.7046666666666668,0.000196
2.7053333333333334,0.000147
2.706,0.000138
2.7066666666666666,8e-05
2.707333333333333,-5.6e-05
2.708,-0.000211
2.708666666666667,-0.000289
2.7093333333333334,-0.000414
2.71,-0.000524
2.7106666666666666,-0.000521
2.711333333333333,-0.000533
2.712,-0.000529
2.712666666666667,-0.000504
2.7133333333333334,-0.000459
2.714,-0.000388
2.7146666666666666,-0.000251
2.715333333333333,-0.000116
2.716,-1.3e-05
2.716666666666667,7e-05
2.7173333333333334,0.000105
2.718,0.000156
2.7186666666666666,0.000202
2.719333333333333,0.000222
2.72,0.000169
2.720666666666667,0.000104
2.7213333333333334,6.5e-05
2.722,5.6e-05
2.7226666666666666,8.9e-05
2.723333333333333,0.000111
2.724,8.3e-05
2.724666666666667,9.7e-05
2.7253333333333334,0.00015
2.726,0.000147
2.7266666666666666,9.7e-05
2.727333333333333,2.6e-05
2.728,-0.000101
2.728666666666667,-0.000253
2.7293333333333334,-0.000402
2.73,-0.000593
2.7306666666666666,-0.000725
2.731333333333333,-0.00085
2.732,-0.000892
2.732666666666667,-0.000903
2.7333333333333334,-0.000905
2.734,-0.000734
2.7346666666666666,-0.000468
2.735333333333333,-7.5e-05
2.736,0.000281
2.736666666666667,0.000418
2.7373333333333334,0.000435
2.738,0.000411
2.7386666666666666,0.000333
2.739333333333333,0.000246
2.74,0.000169
2.740666666666667,0.000139
2.7413333333333334,0.000179
2.742,0.000222
2.7426666666666666,0.000308
2.743333333333333,0.000362
2.744,0.000332
2.744666666666667,0.000287
2.7453333333333334,0.000235
2.746,9.8e-05
2.7466666666666666,0.000112
2.747333333333333,6.2e-05
2.748,-5.4e-05
2.748666666666667,-0.000247
2.7493333333333334,-0.000395
2.75,-0.000491
2.7506666666666666,-0.000549
2.751333333333333,-0.000569
2.752,-0.000599
2.752666666666667,-0.000546
2.7533333333333334,-0.000439
2.754,-0.000375
2.7546666666666666,-0.000294
2.755333333333333,-0.000209
2.756,-0.000137
2.756666666666667,-8.1e-05
2.7573333333333334,-3e-06
2.758,4.2e-05
2.7586666666666666,5e-05
2.759333333333333,0.000118
2.76,0.000186
2.760666666666667,0.000157
2.7613333333333334,0.000131
2.762,0.000206
2.7626666666666666,0.000265
2.763333333333333,0.000247
2.764,0.000208
2.764666666666667,0.000109
2.7653333333333334,3.4e-05
2.766,2.8e-05
2.7666666666666666,-6e-06
2.767333333333333,-0.000102
2.768,-0.00023
2.768666666666667,-0.000298
2.7693333333333334,-0.000358
2.77,-0.000446
2.7706666666666666,-0.00054
2.771333333333333,-0.000617
2.772,-0.000642
2.772666666666667,-0.00063
2.7733333333333334,-0.000547
2.774,-0.000409
2.7746666666666666,-0.000261
2.775333333333333,-0.000144
2.776,-4.1e-05
2.776666666666667,4.3e-05
2.7773333333333334,9.1e-05
2.778,8.3e-05
2.7786666666666666,5.4e-05
2.779333333333333,7.8e-05
2.78,0.000137
2.780666666666667,0.000168
2.7813333333333334,0.000195
2.782,0.000215
2.7826666666666666,0.000268
2.783333333333333,0.000301
2.784,0.000252
2.784666666666667,0.000167
2.7853333333333334,9.2e-05
2.786,2.4e-05
2.7866666666666666,-4.4e-05
2.787333333333333,-0.00016
2.788,-0.00022
2.788666666666667,-0.000253
2.7893333333333334,-0.000311
2.79,-0.000365
2.7906666666666666,-0.000464
2.791333333333333,-0.000584
2.792,-0.000668
2.792666666666667,-0.000665
2.7933333333333334,-0.000559
2.794,-0.000429
2.7946666666666666,-0.000284
2.7953333333333332,-0.000159
2.796,-3.3e-05
2.796666666666667,8e-05
2.7973333333333334,0.000134
2.798,0.00015
2.7986666666666666,0.000181
2.7993333333333332,0.000204
2.8,0.000246
2.800666666666667,0.000257
2.8013333333333335,0.000213
2.802,0.000143
2.8026666666666666,0.000149
2.8033333333333332,0.000206
2.804,0.000213
2.804666666666667,0.000174
2.8053333333333335,0.000136
2.806,9.4e-05
2.8066666666666666,4e-06
2.8073333333333332,-8.5e-05
2.808,-0.000191
2.808666666666667,-0.000325
2.8093333333333335,-0.00046
2.81,-0.000601
2.8106666666666666,-0.000652
2.8113333333333332,-0.000702
2.812,-0.000776
2.812666666666667,-0.000794
2.8133333333333335,-0.000721
2.814,-0.000612
2.8146666666666667,-0.000457
2.8153333333333332,-0.000267
2.816,-9.5e-05
2.816666666666667,-0.0
2.8173333333333335,2e-05
2.818,4e-05
2.8186666666666667,5.4e-05
2.8193333333333332,8.6e-05
2.82,8.5e-05
2.820666666666667,0.000122
2.8213333333333335,0.000158
2.822,0.000142
2.8226666666666667,0.000174
2.8233333333333333,0.000193
2.824,0.000219
2.824666666666667,0.000232
2.8253333333333335,0.000243
2.826,0.000211
2.8266666666666667,0.000187
2.8273333333333333,0.000123
2.828,5.5e-05
2.828666666666667,-7.4e-05
2.8293333333333335,-0.000207
2.83,-0.000294
2.8306666666666667,-0.000323
2.8313333333333333,-0.000373
2.832,-0.000466
2.832666666666667,-0.000453
2.8333333333333335,-0.000366
2.834,-0.000224
2.8346666666666667,-5e-05
2.8353333333333333,7.9e-05
2.836,0.000167
2.8366666666666664,0.000241
2.8373333333333335,0.000264
2.838,0.000318
2.8386666666666667,0.000367
2.8393333333333333,0.000423
2.84,0.000459
2.8406666666666665,0.000477
2.8413333333333335,0.000415
2.842,0.000306
2.8426666666666667,0.000266
2.8433333333333333,0.000299
2.844,0.000311
2.8446666666666665,0.000288
2.8453333333333335,0.000246
2.846,0.000198
2.8466666666666667,0.000113
2.8473333333333333,7e-06
2.848,-0.000124
2.8486666666666665,-0.000226
2.8493333333333335,-0.000322
2.85,-0.000457
2.8506666666666667,-0.000547
2.8513333333333333,-0.000558
2.852,-0.000538
2.8526666666666665,-0.000493
2.8533333333333335,-0.00037
2.854,-0.000298
2.8546666666666667,-0.000294
2.8553333333333333,-0.000245
2.856,-0.000155
2.8566666666666665,-9.4e-05
2.8573333333333335,-4.1e-05
2.858,2e-05
2.8586666666666667,-2.4e-05
2.8593333333333333,7e-06
2.86,9.7e-05
2.8606666666666665,8.1e-05
2.8613333333333335,-4.1e-05
2.862,-0.000103
2.8626666666666667,-2.9e-05
2.8633333333333333,0.000114
2.864,0.000184
2.8646666666666665,0.000233
2.8653333333333335,0.000303
2.866,0.000304
2.8666666666666667,0.000224
2.8673333333333333,6.4e-05
2.868,-8.2e-05
2.8686666666666665,-0.000102
2.8693333333333335,-8e-05
2.87,-0.00015
2.8706666666666667,-0.000243
2.8713333333333333,-0.000363
2.872,-0.000465
2.8726666666666665,-0.00038
2.8733333333333335,-0.000163
2.874,-9.8e-05
2.8746666666666667,-7.7e-05
2.8753333333333333,9.4e-05
2.876,0.000249
2.8766666666666665,0.000301
2.8773333333333335,0.000252
2.878,0.000205
2.8786666666666667,0.00016
2.8793333333333333,0.000267
2.88,0.000352
2.8806666666666665,0.000404
2.8813333333333335,0.000499
2.882,0.000453
2.8826666666666667,0.000366
2.8833333333333333,0.000327
2.884,0.000277
2.8846666666666665,0.000255
2.8853333333333335,0.000225
2.886,0.000147
2.8866666666666667,8.7e-05
2.8873333333333333,-1.1e-05
2.888,-0.000147
2.8886666666666665,-0.00027
2.8893333333333335,-0.000366
2.89,-0.000444
2.8906666666666667,-0.000479
2.8913333333333333,-0.000507
2.892,-0.00051
2.8926666666666665,-0.000457
2.8933333333333335,-0.000377
2.894,-0.000308
2.8946666666666667,-0.00023
2.8953333333333333,-0.000125
2.896,-1.1e-05
2.8966666666666665,1.4e-05
2.8973333333333335,4.4e-05
2.898,0.000112
2.8986666666666667,0.000217
2.8993333333333333,0.000295
2.9,0.000308
2.9006666666666665,0.000293
2.9013333333333335,0.00033
2.902,0.000341
2.9026666666666667,0.000342
2.9033333333333333,0.000269
2.904,0.0002
2.9046666666666665,0.000159
2.9053333333333335,8.1e-05
2.906,4.6e-05
2.9066666666666667,3.3e-05
2.9073333333333333,-9.7e-05
2.908,-0.000239
2.9086666666666665,-0.000339
2.9093333333333335,-0.000355
2.91,-0.000406
2.9106666666666667,-0.000467
2.9113333333333333,-0.000519
2.912,-0.000524
2.9126666666666665,-0.000475
2.9133333333333336,-0.000394
2.914,-0.00034
2.9146666666666667,-0.000253
2.9153333333333333,-0.000202
2.916,-0.000174
2.9166666666666665,-0.00011
2.917333333333333,-6.8e-05
2.918,-4.4e-05
2.9186666666666667,-3.3e-05
2.9193333333333333,-1.3e-05
2.92,1.2e-05
2.9206666666666665,6.5e-05
2.921333333333333,0.000222
2.922,0.000213
2.9226666666666667,0.000116
2.9233333333333333,0.000111
2.924,6.5e-05
2.9246666666666665,-2e-05
2.925333333333333,-4.6e-05
2.926,-1.5e-05
2.9266666666666667,3e-05
2.9273333333333333,3.6e-05
2.928,-0.000102
2.9286666666666665,-0.000244
2.929333333333333,-0.000341
2.93,-0.000409
2.9306666666666668,-0.000482
2.9313333333333333,-0.000538
2.932,-0.000582
2.9326666666666665,-0.000607
2.933333333333333,-0.000593
2.934,-0.000519
2.9346666666666668,-0.000345
2.9353333333333333,-0.000118
2.936,7e-05
2.9366666666666665,0.000145
2.937333333333333,0.000137
2.938,8.3e-05
2.9386666666666668,9e-06
2.9393333333333334,-1.5e-05
2.94,8e-05
2.9406666666666665,0.000138
2.941333333333333,0.000159
2.942,8.9e-05
2.9426666666666668,1.1e-05
2.9433333333333334,-7e-06
2.944,-5.3e-05
2.9446666666666665,-7.9e-05
2.945333333333333,-8e-05
2.946,-9.1e-05
2.9466666666666668,-0.000168
2.9473333333333334,-0.000271
2.948,-0.000372
2.9486666666666665,-0.000496
2.949333333333333,-0.000624
2.95,-0.00075
2.9506666666666668,-0.000736
2.9513333333333334,-0.000689
2.952,-0.000723
2.9526666666666666,-0.000688
2.953333333333333,-0.000574
2.954,-0.000457
2.9546666666666668,-0.000364
2.9553333333333334,-0.000221
2.956,-6.7e-05
2.9566666666666666,-2e-06
2.957333333333333,3.3e-05
2.958,0.000101
2.958666666666667,0.000192
2.9593333333333334,0.000276
2.96,0.000352
2.9606666666666666,0.000335
2.961333333333333,0.000313
2.962,0.00028
2.962666666666667,0.000298
2.9633333333333334,0.00039
2.964,0.000412
2.9646666666666666,0.000333
2.965333333333333,0.000251
2.966,0.000206
2.966666666666667,0.000109
2.9673333333333334,2.8e-05
2.968,-6.5e-05
2.9686666666666666,-0.000148
2.969333333333333,-0.000259
2.97,-0.000381
2.970666666666667,-0.000461
2.9713333333333334,-0.000494
2.972,-0.000505
2.9726666666666666,-0.000508
2.973333333333333,-0.000424
2.974,-0.000364
2.974666666666667,-0.000289
2.9753333333333334,-0.000167
2.976,-4.6e-05
2.9766666666666666,-0.0
2.977333333333333,9e-06
2.978,2.5e-05
2.978666666666667,5.9e-05
2.9793333333333334,0.000103
2.98,0.000172
2.9806666666666666,0.000193
2.981333333333333,0.000122
2.982,-1.9e-05
2.982666666666667,6.5e-05
2.9833333333333334,0.000303
2.984,0.000346
2.9846666666666666,0.000309
2.985333333333333,0.00028
2.986,0.000217
2.986666666666667,0.000129
2.9873333333333334,4e-05
2.988,-5e-05
2.9886666666666666,-0.000147
2.989333333333333,-0.000242
2.99,-0.000368
2.990666666666667,-0.000511
2.9913333333333334,-0.000648
2.992,-0.000685
2.9926666666666666,-0.000615
2.993333333333333,-0.0005
2.994,-0.000372
2.994666666666667,-0.000207
2.9953333333333334,-5.7e-05
2.996,3.9e-05
2.9966666666666666,0.000113
2.997333333333333,7.8e-05
2.998,5.4e-05
2.998666666666667,8.9e-05
2.9993333333333334,0.000127
3.0,0.000153
3.0006666666666666,0.000152
3.001333333333333,0.000138
3.002,6.9e-05
3.002666666666667,6.1e-05
3.0033333333333334,9e-05
3.004,7.8e-05
3.0046666666666666,2.7e-05
3.005333333333333,-1.6e-05
3.006,-4.2e-05
3.006666666666667,-3e-05
3.0073333333333334,-0.000116
3.008,-0.000257
3.0086666666666666,-0.000409
3.009333333333333,-0.00045
3.01,-0.000483
3.010666666666667,-0.000529
3.0113333333333334,-0.000618
3.012,-0.000719
3.0126666666666666,-0.000741
3.013333333333333,-0.000698
3.014,-0.000649
3.014666666666667,-0.000546
3.0153333333333334,-0.000359
3.016,-0.00022
3.0166666666666666,-9.3e-05
3.017333333333333,-6.8e-05
3.018,-5.7e-05
3.018666666666667,2.2e-05
3.0193333333333334,7.6e-05
3.02,6.5e-05
3.0206666666666666,6.4e-05
3.021333333333333,0.000111
3.022,0.000152
3.022666666666667,0.000134
3.0233333333333334,0.000114
3.024,0.000136
3.0246666666666666,0.000131
3.025333333333333,0.0001
3.026,9.7e-05
3.026666666666667,9.4e-05
3.0273333333333334,-3e-05
3.028,-0.000154
3.0286666666666666,-0.000265
3.029333333333333,-0.000384
3.03,-0.000535
3.030666666666667,-0.000659
3.0313333333333334,-0.00067
3.032,-0.000695
3.0326666666666666,-0.000723
3.033333333333333,-0.000626
3.034,-0.000478
3.034666666666667,-0.000351
3.0353333333333334,-0.000273
3.036,-0.000215
3.0366666666666666,-0.000126
3.037333333333333,-7.3e-05
3.038,-3.3e-05
3.038666666666667,7.6e-05
3.0393333333333334,0.000147
3.04,0.000146
3.0406666666666666,0.000123
3.041333333333333,7.9e-05
3.042,4.5e-05
3.042666666666667,3.9e-05
3.0433333333333334,0.000102
3.044,5.6e-05
3.0446666666666666,2.6e-05
3.0453333333333332,5e-05
3.046,5e-05
3.046666666666667,-1.3e-05
3.0473333333333334,-0.000141
3.048,-0.00033
3.0486666666666666,-0.000442
3.0493333333333332,-0.000429
3.05,-0.00044
3.050666666666667,-0.000505
3.0513333333333335,-0.000591
3.052,-0.000645
3.0526666666666666,-0.000655
3.0533333333333332,-0.000576
3.054,-0.00045
3.054666666666667,-0.000297
3.0553333333333335,-0.000178
3.056,-0.00012
3.0566666666666666,-6.9e-05
3.0573333333333332,2.1e-05
3.058,8.5e-05
3.058666666666667,0.000109
3.0593333333333335,0.000123
3.06,0.000129
3.0606666666666666,0.000154
3.0613333333333332,0.000185
3.062,0.000165
3.062666666666667,0.000185
3.0633333333333335,0.000212
3.064,0.000144
3.0646666666666667,7.6e-05
3.0653333333333332,8.1e-05
3.066,0.000137
3.066666666666667,0.000108
3.0673333333333335,-2.7e-05
3.068,-0.000149
3.0686666666666667,-0.000294
3.0693333333333332,-0.000429
3.07,-0.000497
3.070666666666667,-0.000541
3.0713333333333335,-0.000552
3.072,-0.000605
3.0726666666666667,-0.000632
3.0733333333333333,-0.000571
3.074,-0.000502
3.074666666666667,-0.000484
3.0753333333333335,-0.000424
3.076,-0.000287
3.0766666666666667,-0.000155
3.0773333333333333,-4.7e-05
3.078,4e-05
3.078666666666667,7.8e-05
3.0793333333333335,3.5e-05
3.08,3.8e-05
3.0806666666666667,4e-05
3.0813333333333333,7.3e-05
3.082,4.2e-05
3.082666666666667,-2.4e-05
3.0833333333333335,-4.9e-05
3.084,-9.8e-05
3.0846666666666667,-9e-05
3.0853333333333333,-6.5e-05
3.086,-8.8e-05
3.0866666666666664,-0.000145
3.0873333333333335,-0.000264
3.088,-0.000315
3.0886666666666667,-0.000391
3.0893333333333333,-0.000537
3.09,-0.000659
3.0906666666666665,-0.000678
3.0913333333333335,-0.000634
3.092,-0.000616
3.0926666666666667,-0.000652
3.0933333333333333,-0.000641
3.094,-0.000537
3.0946666666666665,-0.000402
3.0953333333333335,-0.000281
3.096,-0.00016
3.0966666666666667,-1.6e-05
3.0973333333333333,0.000161
3.098,0.000319
3.0986666666666665,0.000417
3.0993333333333335,0.000432
3.1,0.000424
3.1006666666666667,0.000411
3.1013333333333333,0.000338
3.102,0.000268
3.1026666666666665,0.000245
3.1033333333333335,0.000286
3.104,0.000237
3.1046666666666667,0.000211
3.1053333333333333,0.000302
3.106,0.000348
3.1066666666666665,0.000255
3.1073333333333335,0.000112
3.108,-1.9e-05
3.1086666666666667,-0.000155
3.1093333333333333,-0.000257
3.11,-0.000333
3.1106666666666665,-0.000399
3.1113333333333335,-0.000444
3.112,-0.000475
3.1126666666666667,-0.000507
3.1133333333333333,-0.000512
3.114,-0.000496
3.1146666666666665,-0.000413
3.1153333333333335,-0.000294
3.116,-0.00019
3.1166666666666667,-0.000118
3.1173333333333333,-2.3e-05
3.118,6.3e-05
3.1186666666666665,0.000133
3.1193333333333335,0.000142
3.12,0.000122
3.1206666666666667,7.3e-05
3.1213333333333333,2.8e-05
3.122,-4e-06
3.1226666666666665,1.4e-05
3.1233333333333335,0.000112
3.124,0.000156
3.1246666666666667,0.00014
3.1253333333333333,7.6e-05
3.126,-3.5e-05
3.1266666666666665,-0.000105
3.1273333333333335,-0.000174
3.128,-0.000272
3.1286666666666667,-0.00037
3.1293333333333333,-0.000475
3.13,-0.000593
3.1306666666666665,-0.000618
3.1313333333333335,-0.000621
3.132,-0.000511
3.1326666666666667,-0.000406
3.1333333333333333,-0.000365
3.134,-0.000413
3.1346666666666665,-0.000362
3.1353333333333335,-0.000245
3.136,-0.000107
3.1366666666666667,3.1e-05
3.1373333333333333,0.000147
3.138,0.000225
3.1386666666666665,0.000218
3.1393333333333335,0.0002
3.14,0.000258
3.1406666666666667,0.000282
3.1413333333333333,0.000255
3.142,0.000239
3.1426666666666665,0.000229
3.1433333333333335,0.000268
3.144,0.000294
3.1446666666666667,0.000222
3.1453333333333333,0.000148
3.146,0.0001
3.1466666666666665,6.1e-05
3.1473333333333335,-2.7e-05
3.148,-0.000155
3.1486666666666667,-0.000265
3.1493333333333333,-0.000352
3.15,-0.000415
3.1506666666666665,-0.00042
3.1513333333333335,-0.000548
3.152,-0.000671
3.1526666666666667,-0.000715
3.1533333333333333,-0.000641
3.154,-0.000547
3.1546666666666665,-0.000429
3.1553333333333335,-0.000345
3.156,-0.00025
3.1566666666666667,-0.000145
3.1573333333333333,-3.5e-05
3.158,9.2e-05
3.1586666666666665,0.00015
3.1593333333333335,0.000153
3.16,0.000236
3.1606666666666667,0.000374
3.1613333333333333,0.000464
3.162,0.000307
3.1626666666666665,0.000244
3.1633333333333336,0.000311
3.164,0.000306
3.1646666666666667,0.00028
3.1653333333333333,0.00028
3.166,0.000245
3.1666666666666665,0.00021
3.167333333333333,0.000186
3.168,0.00014
3.1686666666666667,9e-06
3.1693333333333333,-0.000158
3.17,-0.000392
3.1706666666666665,-0.000637
3.171333333333333,-0.000808
3.172,-0.000882
3.1726666666666667,-0.000774
3.1733333333333333,-0.000561
3.174,-0.00033
3.1746666666666665,-0.000119
3.175333333333333,5.3e-05
3.176,0.00016
3.1766666666666667,0.000273
3.1773333333333333,0.000296
3.178,0.000246
3.1786666666666665,0.000177
3.179333333333333,0.000165
3.18,0.000135
3.1806666666666668,0.000167
3.1813333333333333,0.000238
3.182,0.000251
3.1826666666666665,0.000301
3.183333333333333,0.000367
3.184,0.000329
3.1846666666666668,0.000285
3.1853333333333333,0.000201
3.186,0.000106
3.1866666666666665,1.8e-05
3.187333333333333,-5.1e-05
3.188,-0.000129
3.1886666666666668,-0.000206
3.1893333333333334,-0.000276
3.19,-0.000397
3.1906666666666665,-0.00051
3.191333333333333,-0.000521
3.192,-0.000517
3.1926666666666668,-0.000524
3.1933333333333334,-0.000485
3.194,-0.00042
3.1946666666666665,-0.000357
3.195333333333333,-0.000264
3.196,-0.00015
3.1966666666666668,-6.4e-05
3.1973333333333334,4.6e-05
3.198,0.000139
3.1986666666666665,0.000217
3.199333333333333,0.000258
3.2,0.00026
3.2006666666666668,0.000225
3.2013333333333334,0.000225
3.202,0.00023
3.2026666666666666,0.000206
3.203333333333333,0.000148
3.204,5.9e-05
3.2046666666666668,1e-05
3.2053333333333334,-4.8e-05
3.206,-3.3e-05
3.2066666666666666,-3e-05
3.207333333333333,-0.000157
3.208,-0.000316
3.208666666666667,-0.000411
3.2093333333333334,-0.000529
3.21,-0.000634
3.2106666666666666,-0.000642
3.211333333333333,-0.000657
3.212,-0.000685
3.212666666666667,-0.000598
3.2133333333333334,-0.000425
3.214,-0.000317
3.2146666666666666,-0.000195
3.215333333333333,-5.8e-05
3.216,3.1e-05
3.216666666666667,0.000139
3.2173333333333334,0.00024
3.218,0.000293
3.2186666666666666,0.000348
3.219333333333333,0.000351
3.22,0.000384
3.220666666666667,0.000426
3.2213333333333334,0.00041
3.222,0.000372
3.2226666666666666,0.000369
3.223333333333333,0.000414
3.224,0.000365
3.224666666666667,0.00031
3.2253333333333334,0.000299
3.226,0.000232
3.2266666666666666,0.000147
3.227333333333333,6.9e-05
3.228,-3.2e-05
3.228666666666667,-0.000143
3.2293333333333334,-0.000281
3.23,-0.000409
3.2306666666666666,-0.000533
3.231333333333333,-0.000633
3.232,-0.000643
3.232666666666667,-0.000577
3.2333333333333334,-0.000471
3.234,-0.000317
3.2346666666666666,-0.000167
3.235333333333333,-5.8e-05
3.236,2.3e-05
3.236666666666667,5.2e-05
3.2373333333333334,-2e-06
3.238,3.8e-05
3.2386666666666666,0.000125
3.239333333333333,0.000157
3.24,0.000164
3.240666666666667,0.000153
3.2413333333333334,0.000171
3.242,0.0002
3.2426666666666666,0.000181
3.243333333333333,0.000176
3.244,0.000152
3.244666666666667,0.000132
3.2453333333333334,0.00013
3.246,0.000127
3.2466666666666666,0.000119
3.247333333333333,5.8e-05
3.248,-1.2e-05
3.248666666666667,-0.000115
3.2493333333333334,-0.000206
3.25,-0.000346
3.2506666666666666,-0.00043
3.251333333333333,-0.00046
3.252,-0.000519
3.252666666666667,-0.000536
3.2533333333333334,-0.000476
3.254,-0.000344
3.2546666666666666,-0.000134
3.255333333333333,8.1e-05
3.256,0.000271
3.256666666666667,0.000351
3.2573333333333334,0.000377
3.258,0.000389
3.2586666666666666,0.00039
3.259333333333333,0.000346
3.26,0.000303
3.260666666666667,0.00025
3.2613333333333334,0.000213
3.262,0.000229
3.2626666666666666,0.000205
3.263333333333333,0.000178
3.264,0.000221
3.264666666666667,0.00026
3.2653333333333334,0.000269
3.266,0.00025
3.2666666666666666,0.000217
3.267333333333333,0.000166
3.268,3.2e-05
3.268666666666667,-0.000109
3.2693333333333334,-0.000257
3.27,-0.000422
3.2706666666666666,-0.000518
3.271333333333333,-0.000559
3.272,-0.0006
3.272666666666667,-0.000659
3.2733333333333334,-0.000687
3.274,-0.000646
3.2746666666666666,-0.000563
3.275333333333333,-0.000421
3.276,-0.000159
3.276666666666667,5e-05
3.2773333333333334,9.2e-05
3.278,7.7e-05
3.2786666666666666,7.3e-05
3.279333333333333,0.000114
3.28,0.000189
3.280666666666667,0.000139
3.2813333333333334,6.1e-05
3.282,3.9e-05
3.2826666666666666,4.7e-05
3.283333333333333,0.000188
3.284,0.000263
3.284666666666667,0.000245
3.2853333333333334,0.000223
3.286,0.000212
3.2866666666666666,0.000204
3.287333333333333,0.000161
3.288,7.5e-05
3.288666666666667,-4e-05
3.2893333333333334,-0.000148
3.29,-0.000249
3.2906666666666666,-0.000343
3.291333333333333,-0.00041
3.292,-0.000441
3.292666666666667,-0.000447
3.2933333333333334,-0.000405
3.294,-0.000378
3.2946666666666666,-0.000254
3.2953333333333332,-0.000163
3.296,-0.000143
3.296666666666667,-9.4e-05
3.2973333333333334,-4e-05
3.298,5.5e-05
3.2986666666666666,0.00025
3.2993333333333332,0.00035
3.3,0.000391
3.300666666666667,0.00045
3.3013333333333335,0.000431
3.302,0.000368
3.3026666666666666,0.000279
3.3033333333333332,0.000236
3.304,0.00021
3.304666666666667,0.000165
3.3053333333333335,0.000115
3.306,0.000131
3.3066666666666666,0.000116
3.3073333333333332,-3.5e-05
3.308,-0.000171
3.308666666666667,-0.000322
3.3093333333333335,-0.000427
3.31,-0.000478
3.3106666666666666,-0.00048
3.3113333333333332,-0.000474
3.312,-0.000538
3.312666666666667,-0.000578
3.3133333333333335,-0.000524
3.314,-0.000455
3.3146666666666667,-0.000392
3.3153333333333332,-0.000323
3.316,-0.000235
3.316666666666667,-0.000118
3.3173333333333335,4e-06
3.318,0.000113
3.3186666666666667,0.00025
3.3193333333333332,0.000255
3.32,0.000191
3.320666666666667,0.000217
3.3213333333333335,0.000208
3.322,0.000133
3.3226666666666667,0.000164
3.3233333333333333,0.000203
3.324,0.000159
3.324666666666667,8.6e-05
3.3253333333333335,0.000125
3.326,0.000151
3.3266666666666667,0.000133
3.3273333333333333,5.6e-05
3.328,-6.6e-05
3.328666666666667,-0.000206
3.3293333333333335,-0.000259
3.33,-0.000309
3.3306666666666667,-0.000439
3.3313333333333333,-0.000506
3.332,-0.000475
3.332666666666667,-0.000525
3.3333333333333335,-0.000562
3.334,-0.000438
3.3346666666666667,-0.000326
3.3353333333333333,-0.000262
3.336,-0.000201
3.3366666666666664,-0.00013
3.3373333333333335,-5.7e-05
3.338,5.5e-05
3.3386666666666667,0.000106
3.3393333333333333,0.000112
3.34,0.000129
3.3406666666666665,0.00018
3.3413333333333335,0.000156
3.342,8.4e-05
3.3426666666666667,0.000103
3.3433333333333333,0.000219
3.344,0.00026
3.3446666666666665,0.000199
3.3453333333333335,0.000159
3.346,0.000111
3.3466666666666667,2.9e-05
3.3473333333333333,8.3e-05
3.348,0.000132
3.3486666666666665,7.9e-05
3.3493333333333335,-7e-05
3.35,-0.000243
3.3506666666666667,-0.000349
3.3513333333333333,-0.00036
3.352,-0.000425
3.3526666666666665,-0.000508
3.3533333333333335,-0.000446
3.354,-0.000368
3.3546666666666667,-0.000265
3.3553333333333333,-0.000223
3.356,-0.000118
3.3566666666666665,4.6e-05
3.3573333333333335,0.000149
3.358,0.000249
3.3586666666666667,0.000266
3.3593333333333333,0.000186
3.36,0.000193
3.3606666666666665,0.000186
3.3613333333333335,0.000129
3.362,8.1e-05
