1.490000000000000000e+02
1.469999999999999953e-04
1.759999999999999954e-04
1.669999999999999935e-04
1.100000000000000039e-04
6.200000000000000270e-05
-3.600000000000000091e-05
-1.450000000000000009e-04
-2.220000000000000022e-04
-2.999999999999999737e-04
-3.750000000000000078e-04
-4.240000000000000062e-04
-4.290000000000000193e-04
-4.220000000000000118e-04
-3.829999999999999854e-04
-3.060000000000000111e-04
-2.519999999999999996e-04
-1.879999999999999890e-04
-1.039999999999999936e-04
-6.000000000000000152e-06
6.700000000000000226e-05
1.330000000000000073e-04
1.669999999999999935e-04
2.000000000000000096e-04
2.359999999999999902e-04
2.410000000000000033e-04
2.169999999999999891e-04
1.910000000000000077e-04
1.499999999999999869e-04
1.160000000000000007e-04
1.250000000000000026e-04
9.799999999999999684e-05
4.300000000000000165e-05
2.500000000000000120e-05
1.399999999999999979e-05
3.999999999999999819e-06
-3.600000000000000091e-05
-1.150000000000000035e-04
-1.920000000000000049e-04
-2.620000000000000258e-04
-3.359999999999999814e-04
-3.770000000000000022e-04
-3.910000000000000172e-04
-3.939999999999999817e-04
-3.699999999999999947e-04
-2.959999999999999849e-04
-2.530000000000000239e-04
-1.890000000000000133e-04
-1.140000000000000063e-04
-3.199999999999999855e-05
5.599999999999999916e-05
1.119999999999999983e-04
1.279999999999999942e-04
1.340000000000000045e-04
1.540000000000000028e-04
1.830000000000000029e-04
2.000000000000000096e-04
1.740000000000000010e-04
8.899999999999999491e-05
4.500000000000000283e-05
7.200000000000000182e-05
5.199999999999999680e-05
5.000000000000000240e-05
3.600000000000000091e-05
1.900000000000000105e-05
1.000000000000000082e-05
-6.000000000000000152e-05
-9.600000000000000243e-05
-1.710000000000000094e-04
-2.849999999999999886e-04
-3.809999999999999910e-04
-4.279999999999999950e-04
-4.279999999999999950e-04
-4.569999999999999952e-04
-4.490000000000000176e-04
-3.780000000000000265e-04
-3.229999999999999907e-04
-2.509999999999999753e-04
-1.569999999999999944e-04
-6.999999999999999387e-05
1.500000000000000038e-05
6.099999999999999872e-05
7.799999999999999859e-05
9.799999999999999684e-05
1.079999999999999960e-04
8.299999999999999815e-05
1.150000000000000035e-04
1.720000000000000066e-04
1.530000000000000056e-04
1.050000000000000044e-04
1.320000000000000101e-04
1.420000000000000092e-04
9.799999999999999684e-05
5.899999999999999754e-05
3.899999999999999929e-05
-1.000000000000000082e-05
-9.600000000000000243e-05
-1.810000000000000085e-04
-2.359999999999999902e-04
-3.220000000000000206e-04
-4.020000000000000136e-04
-4.400000000000000157e-04
-4.490000000000000176e-04
-4.499999999999999877e-04
-4.449999999999999746e-04
-3.660000000000000059e-04
-2.999999999999999737e-04
-2.100000000000000087e-04
-1.210000000000000002e-04
-7.399999999999999623e-05
-2.099999999999999884e-05
2.599999999999999840e-05
5.399999999999999798e-05
7.299999999999999903e-05
9.399999999999999448e-05
1.119999999999999983e-04
1.330000000000000073e-04
1.450000000000000009e-04
1.379999999999999933e-04
1.389999999999999905e-04
1.979999999999999881e-04
2.079999999999999872e-04
1.779999999999999898e-04
1.140000000000000063e-04
7.100000000000000462e-05
2.699999999999999899e-05
-6.799999999999999946e-05
-1.610000000000000103e-04
-2.539999999999999940e-04
-3.499999999999999964e-04
-4.139999999999999800e-04
-4.519999999999999821e-04
-4.600000000000000139e-04
-4.749999999999999990e-04
-4.530000000000000064e-04
-3.879999999999999985e-04
-3.280000000000000038e-04
-2.310000000000000042e-04
-1.279999999999999942e-04
-1.599999999999999928e-05
7.899999999999999579e-05
1.129999999999999955e-04
1.310000000000000129e-04
1.559999999999999972e-04
1.789999999999999870e-04
1.930000000000000021e-04
1.920000000000000049e-04
1.759999999999999954e-04
1.399999999999999877e-04
1.250000000000000026e-04
1.789999999999999870e-04
1.859999999999999945e-04
1.410000000000000120e-04
9.200000000000000007e-05
5.099999999999999960e-05
3.100000000000000135e-05
-2.900000000000000017e-05
-9.299999999999999727e-05
-1.610000000000000103e-04
-2.320000000000000014e-04
-3.190000000000000019e-04
-3.879999999999999985e-04
-4.139999999999999800e-04
-4.429999999999999802e-04
-4.519999999999999821e-04
-3.640000000000000115e-04
-3.080000000000000055e-04
-2.229999999999999994e-04
-1.090000000000000067e-04
-1.599999999999999928e-05
5.899999999999999754e-05
1.250000000000000026e-04
1.700000000000000122e-04
2.090000000000000115e-04
2.079999999999999872e-04
1.849999999999999973e-04
1.830000000000000029e-04
1.740000000000000010e-04
1.489999999999999897e-04
1.540000000000000028e-04
1.920000000000000049e-04
1.749999999999999982e-04
1.420000000000000092e-04
9.699999999999999963e-05
5.599999999999999916e-05
5.899999999999999754e-05
2.799999999999999958e-05
-3.100000000000000135e-05
-1.389999999999999905e-04
-2.400000000000000061e-04
-3.330000000000000169e-04
-3.609999999999999928e-04
-3.490000000000000263e-04
-3.800000000000000209e-04
-4.119999999999999856e-04
-3.469999999999999777e-04
-2.649999999999999903e-04
-1.900000000000000105e-04
-1.200000000000000030e-04
-6.600000000000000506e-05
1.800000000000000046e-05
8.200000000000000095e-05
1.350000000000000017e-04
1.540000000000000028e-04
1.640000000000000019e-04
1.769999999999999926e-04
1.910000000000000077e-04
1.930000000000000021e-04
1.499999999999999869e-04
1.410000000000000120e-04
1.840000000000000001e-04
2.069999999999999900e-04
2.030000000000000012e-04
1.569999999999999944e-04
1.250000000000000026e-04
9.200000000000000007e-05
1.099999999999999971e-05
-9.200000000000000007e-05
-1.840000000000000001e-04
-3.009999999999999980e-04
-3.780000000000000265e-04
-4.270000000000000249e-04
-4.350000000000000026e-04
-4.629999999999999784e-04
-4.449999999999999746e-04
-3.620000000000000171e-04
-2.889999999999999774e-04
-2.030000000000000012e-04
-9.799999999999999684e-05
-3.999999999999999819e-06
6.299999999999999990e-05
1.150000000000000035e-04
1.679999999999999907e-04
2.130000000000000003e-04
2.380000000000000117e-04
2.310000000000000042e-04
2.249999999999999938e-04
1.910000000000000077e-04
1.630000000000000047e-04
1.600000000000000131e-04
2.180000000000000134e-04
2.110000000000000059e-04
1.730000000000000038e-04
1.389999999999999905e-04
1.230000000000000082e-04
6.600000000000000506e-05
-5.199999999999999680e-05
-1.330000000000000073e-04
-1.949999999999999965e-04
-2.900000000000000017e-04
-3.829999999999999854e-04
-4.350000000000000026e-04
-4.319999999999999838e-04
-4.769999999999999934e-04
-4.659999999999999971e-04
-3.860000000000000041e-04
-2.999999999999999737e-04
-2.139999999999999975e-04
-1.320000000000000101e-04
-6.499999999999999431e-05
2.799999999999999958e-05
8.700000000000000051e-05
1.279999999999999942e-04
1.610000000000000103e-04
1.740000000000000010e-04
1.720000000000000066e-04
1.700000000000000122e-04
1.740000000000000010e-04
1.540000000000000028e-04
1.569999999999999944e-04
2.239999999999999966e-04
2.420000000000000005e-04
2.110000000000000059e-04
1.749999999999999982e-04
1.190000000000000058e-04
3.100000000000000135e-05
-5.099999999999999960e-05
-1.250000000000000026e-04
-2.059999999999999928e-04
-2.799999999999999755e-04
-3.550000000000000096e-04
-3.930000000000000117e-04
-4.060000000000000024e-04
-4.310000000000000137e-04
-4.330000000000000081e-04
-3.770000000000000022e-04
-3.249999999999999851e-04
-2.420000000000000005e-04
-1.579999999999999916e-04
-8.299999999999999815e-05
-9.999999999999999547e-07
6.299999999999999990e-05
7.700000000000000139e-05
8.600000000000000331e-05
1.119999999999999983e-04
1.279999999999999942e-04
1.469999999999999953e-04
1.510000000000000112e-04
1.520000000000000084e-04
1.589999999999999888e-04
1.920000000000000049e-04
1.659999999999999963e-04
1.369999999999999961e-04
1.119999999999999983e-04
7.200000000000000182e-05
3.399999999999999973e-05
-3.000000000000000076e-05
-8.500000000000000611e-05
-1.679999999999999907e-04
-2.779999999999999811e-04
-3.550000000000000096e-04
-4.150000000000000043e-04
-4.350000000000000026e-04
-4.589999999999999896e-04
-4.409999999999999858e-04
-3.829999999999999854e-04
-3.390000000000000001e-04
-2.809999999999999998e-04
-1.779999999999999898e-04
-5.899999999999999754e-05
2.799999999999999958e-05
8.500000000000000611e-05
1.389999999999999905e-04
1.779999999999999898e-04
2.059999999999999928e-04
2.020000000000000040e-04
1.869999999999999917e-04
1.410000000000000120e-04
1.169999999999999979e-04
1.169999999999999979e-04
1.659999999999999963e-04
1.740000000000000010e-04
1.540000000000000028e-04
9.799999999999999684e-05
4.000000000000000327e-05
-1.599999999999999928e-05
-8.700000000000000051e-05
-1.620000000000000075e-04
-2.030000000000000012e-04
-2.649999999999999903e-04
-3.289999999999999739e-04
-3.490000000000000263e-04
-3.620000000000000171e-04
-4.099999999999999912e-04
-4.180000000000000230e-04
-3.780000000000000265e-04
-3.150000000000000131e-04
-2.310000000000000042e-04
-1.279999999999999942e-04
-3.800000000000000209e-05
4.399999999999999886e-05
1.359999999999999989e-04
2.030000000000000012e-04
2.689999999999999791e-04
2.919999999999999961e-04
2.590000000000000071e-04
2.349999999999999930e-04
2.159999999999999919e-04
1.589999999999999888e-04
1.190000000000000058e-04
1.679999999999999907e-04
1.810000000000000085e-04
1.579999999999999916e-04
1.100000000000000039e-04
5.800000000000000034e-05
2.400000000000000061e-05
-4.000000000000000327e-05
-1.389999999999999905e-04
-2.469999999999999865e-04
-3.390000000000000001e-04
-4.189999999999999931e-04
-4.389999999999999914e-04
-4.389999999999999914e-04
-4.299999999999999894e-04
-4.110000000000000155e-04
-3.660000000000000059e-04
-3.040000000000000167e-04
-2.349999999999999930e-04
-1.359999999999999989e-04
-4.100000000000000047e-05
4.199999999999999768e-05
9.799999999999999684e-05
1.610000000000000103e-04
2.130000000000000003e-04
2.130000000000000003e-04
1.830000000000000029e-04
1.669999999999999935e-04
1.379999999999999933e-04
1.110000000000000011e-04
1.119999999999999983e-04
1.779999999999999898e-04
1.810000000000000085e-04
1.530000000000000056e-04
1.279999999999999942e-04
1.100000000000000039e-04
9.299999999999999727e-05
2.900000000000000017e-05
-5.300000000000000078e-05
-1.630000000000000047e-04
-2.649999999999999903e-04
-3.499999999999999964e-04
-3.860000000000000041e-04
-3.750000000000000078e-04
-3.910000000000000172e-04
-3.860000000000000041e-04
-3.480000000000000020e-04
-2.939999999999999905e-04
-2.139999999999999975e-04
-1.320000000000000101e-04
-6.899999999999999667e-05
9.000000000000000228e-06
5.899999999999999754e-05
8.600000000000000331e-05
9.799999999999999684e-05
1.000000000000000048e-04
1.050000000000000044e-04
1.219999999999999974e-04
1.289999999999999914e-04
1.069999999999999988e-04
8.700000000000000051e-05
1.589999999999999888e-04
2.049999999999999956e-04
1.859999999999999945e-04
1.359999999999999989e-04
1.119999999999999983e-04
7.399999999999999623e-05
6.000000000000000152e-06
-7.100000000000000462e-05
-1.569999999999999944e-04
-2.579999999999999828e-04
-3.469999999999999777e-04
-3.970000000000000005e-04
-3.989999999999999949e-04
-3.970000000000000005e-04
-3.989999999999999949e-04
-3.429999999999999889e-04
-2.669999999999999847e-04
-1.900000000000000105e-04
-1.119999999999999983e-04
-4.100000000000000047e-05
1.000000000000000082e-05
6.000000000000000152e-05
1.219999999999999974e-04
1.730000000000000038e-04
1.869999999999999917e-04
1.959999999999999937e-04
2.220000000000000022e-04
2.130000000000000003e-04
1.859999999999999945e-04
1.499999999999999869e-04
1.820000000000000057e-04
1.700000000000000122e-04
1.389999999999999905e-04
1.079999999999999960e-04
8.600000000000000331e-05
5.000000000000000240e-05
-3.300000000000000253e-05
-1.369999999999999961e-04
-2.139999999999999975e-04
-3.069999999999999812e-04
-3.780000000000000265e-04
-4.360000000000000269e-04
-4.310000000000000137e-04
-4.389999999999999914e-04
-4.679999999999999915e-04
-4.409999999999999858e-04
-3.860000000000000041e-04
-3.280000000000000038e-04
-2.380000000000000117e-04
-1.320000000000000101e-04
-6.499999999999999431e-05
9.000000000000000228e-06
7.600000000000000418e-05
1.330000000000000073e-04
1.669999999999999935e-04
1.969999999999999909e-04
2.180000000000000134e-04
2.190000000000000106e-04
1.810000000000000085e-04
1.669999999999999935e-04
2.139999999999999975e-04
2.349999999999999930e-04
2.079999999999999872e-04
1.450000000000000009e-04
6.600000000000000506e-05
3.399999999999999973e-05
9.000000000000000228e-06
-4.899999999999999842e-05
-1.410000000000000120e-04
-2.460000000000000164e-04
-3.209999999999999963e-04
-3.629999999999999872e-04
-4.110000000000000155e-04
-4.470000000000000232e-04
-4.749999999999999990e-04
-4.629999999999999784e-04
-4.459999999999999989e-04
-3.840000000000000097e-04
-2.649999999999999903e-04
-1.530000000000000056e-04
-1.699999999999999987e-05
1.579999999999999916e-04
2.739999999999999923e-04
2.799999999999999755e-04
2.369999999999999874e-04
2.000000000000000096e-04
2.020000000000000040e-04
1.920000000000000049e-04
1.310000000000000129e-04
7.899999999999999579e-05
1.550000000000000000e-04
2.410000000000000033e-04
2.770000000000000110e-04
2.559999999999999884e-04
2.159999999999999919e-04
1.710000000000000094e-04
8.600000000000000331e-05
-4.100000000000000047e-05
-1.600000000000000131e-04
-2.449999999999999921e-04
-2.930000000000000204e-04
-3.770000000000000022e-04
-4.240000000000000062e-04
-4.589999999999999896e-04
-4.640000000000000027e-04
-4.209999999999999875e-04
-3.379999999999999758e-04
-2.820000000000000241e-04
-2.049999999999999956e-04
-1.190000000000000058e-04
-3.699999999999999811e-05
5.800000000000000034e-05
1.160000000000000007e-04
1.559999999999999972e-04
1.810000000000000085e-04
1.550000000000000000e-04
1.140000000000000063e-04
9.799999999999999684e-05
7.899999999999999579e-05
7.700000000000000139e-05
1.600000000000000131e-04
2.220000000000000022e-04
1.969999999999999909e-04
1.230000000000000082e-04
6.200000000000000270e-05
2.900000000000000017e-05
-3.800000000000000209e-05
-1.730000000000000038e-04
-2.959999999999999849e-04
-3.400000000000000244e-04
-3.800000000000000209e-04
-4.189999999999999931e-04
-4.569999999999999952e-04
-5.190000000000000386e-04
-5.590000000000000351e-04
-5.100000000000000366e-04
-4.279999999999999950e-04
-3.130000000000000187e-04
-1.869999999999999917e-04
-7.399999999999999623e-05
4.699999999999999724e-05
1.200000000000000030e-04
1.310000000000000129e-04
1.720000000000000066e-04
2.249999999999999938e-04
2.570000000000000127e-04
2.460000000000000164e-04
2.280000000000000126e-04
2.159999999999999919e-04
1.530000000000000056e-04
1.600000000000000131e-04
1.520000000000000084e-04
9.000000000000000567e-05
-1.999999999999999909e-06
-9.000000000000000567e-05
-1.190000000000000058e-04
-1.589999999999999888e-04
-2.280000000000000126e-04
-3.110000000000000243e-04
-3.730000000000000134e-04
-4.099999999999999912e-04
-3.980000000000000248e-04
-3.669999999999999760e-04
-3.420000000000000188e-04
-3.609999999999999928e-04
-3.510000000000000208e-04
-2.990000000000000036e-04
-2.539999999999999940e-04
-1.959999999999999937e-04
-9.799999999999999684e-05
3.800000000000000209e-05
1.269999999999999970e-04
1.700000000000000122e-04
1.930000000000000021e-04
2.570000000000000127e-04
2.849999999999999886e-04
3.200000000000000262e-04
3.440000000000000132e-04
2.620000000000000258e-04
1.689999999999999879e-04
1.620000000000000075e-04
1.410000000000000120e-04
7.600000000000000418e-05
1.500000000000000038e-05
-3.499999999999999693e-05
-7.899999999999999579e-05
-1.200000000000000030e-04
-1.610000000000000103e-04
-1.959999999999999937e-04
-2.579999999999999828e-04
-3.519999999999999908e-04
-4.189999999999999931e-04
-4.609999999999999840e-04
-4.829999999999999767e-04
-4.449999999999999746e-04
-3.550000000000000096e-04
-3.139999999999999888e-04
-2.719999999999999979e-04
-1.990000000000000124e-04
-9.000000000000000567e-05
5.000000000000000240e-05
1.310000000000000129e-04
1.369999999999999961e-04
1.219999999999999974e-04
1.720000000000000066e-04
2.649999999999999903e-04
3.069999999999999812e-04
2.820000000000000241e-04
2.249999999999999938e-04
1.459999999999999981e-04
1.499999999999999869e-04
1.810000000000000085e-04
1.649999999999999991e-04
1.289999999999999914e-04
7.399999999999999623e-05
3.199999999999999855e-05
0.000000000000000000e+00
-1.160000000000000007e-04
-2.880000000000000073e-04
-3.649999999999999816e-04
-3.989999999999999949e-04
-4.110000000000000155e-04
-4.310000000000000137e-04
-4.769999999999999934e-04
-5.140000000000000254e-04
-4.659999999999999971e-04
-3.730000000000000134e-04
-2.809999999999999998e-04
-1.600000000000000131e-04
-3.000000000000000076e-06
9.200000000000000007e-05
1.479999999999999925e-04
1.700000000000000122e-04
2.079999999999999872e-04
2.269999999999999882e-04
2.599999999999999772e-04
2.970000000000000092e-04
2.730000000000000222e-04
1.969999999999999909e-04
1.169999999999999979e-04
1.459999999999999981e-04
1.769999999999999926e-04
1.820000000000000057e-04
1.820000000000000057e-04
1.610000000000000103e-04
1.330000000000000073e-04
7.799999999999999859e-05
-3.899999999999999929e-05
-1.979999999999999881e-04
-3.359999999999999814e-04
-4.079999999999999968e-04
-4.409999999999999858e-04
-4.240000000000000062e-04
-4.229999999999999819e-04
-4.350000000000000026e-04
-3.939999999999999817e-04
-3.200000000000000262e-04
-2.570000000000000127e-04
-1.810000000000000085e-04
-8.500000000000000611e-05
-1.999999999999999909e-06
6.200000000000000270e-05
1.140000000000000063e-04
1.579999999999999916e-04
1.610000000000000103e-04
1.689999999999999879e-04
1.499999999999999869e-04
1.700000000000000122e-04
1.769999999999999926e-04
1.730000000000000038e-04
1.559999999999999972e-04
9.699999999999999963e-05
6.600000000000000506e-05
7.200000000000000182e-05
2.799999999999999958e-05
-2.400000000000000061e-05
-3.499999999999999693e-05
-6.499999999999999431e-05
-1.430000000000000064e-04
-2.799999999999999755e-04
-3.699999999999999947e-04
-4.310000000000000137e-04
-4.550000000000000008e-04
-4.459999999999999989e-04
-3.910000000000000172e-04
-3.249999999999999851e-04
-2.700000000000000035e-04
-1.510000000000000112e-04
-4.899999999999999842e-05
-3.399999999999999973e-05
9.000000000000000228e-06
7.200000000000000182e-05
1.550000000000000000e-04
2.519999999999999996e-04
3.130000000000000187e-04
3.370000000000000057e-04
2.970000000000000092e-04
2.559999999999999884e-04
2.059999999999999928e-04
1.600000000000000131e-04
2.149999999999999947e-04
2.660000000000000146e-04
2.020000000000000040e-04
1.450000000000000009e-04
7.299999999999999903e-05
2.599999999999999840e-05
-2.300000000000000002e-05
-1.340000000000000045e-04
-2.649999999999999903e-04
-3.899999999999999929e-04
-4.550000000000000008e-04
-4.920000000000000328e-04
-4.850000000000000253e-04
-4.749999999999999990e-04
-4.769999999999999934e-04
-4.769999999999999934e-04
-4.139999999999999800e-04
-3.110000000000000243e-04
-1.849999999999999973e-04
-7.600000000000000418e-05
6.600000000000000506e-05
1.259999999999999998e-04
1.330000000000000073e-04
1.779999999999999898e-04
2.200000000000000078e-04
2.570000000000000127e-04
2.680000000000000090e-04
2.359999999999999902e-04
2.139999999999999975e-04
1.830000000000000029e-04
1.689999999999999879e-04
1.689999999999999879e-04
1.510000000000000112e-04
1.029999999999999964e-04
3.899999999999999929e-05
7.999999999999999638e-06
-4.899999999999999842e-05
-1.610000000000000103e-04
-2.539999999999999940e-04
-2.970000000000000092e-04
-3.539999999999999853e-04
-3.890000000000000228e-04
-3.759999999999999779e-04
-3.719999999999999891e-04
-3.800000000000000209e-04
-3.089999999999999756e-04
-2.220000000000000022e-04
-1.669999999999999935e-04
-1.219999999999999974e-04
-9.899999999999999404e-05
-8.299999999999999815e-05
1.999999999999999909e-06
1.389999999999999905e-04
2.079999999999999872e-04
2.220000000000000022e-04
1.779999999999999898e-04
1.689999999999999879e-04
2.030000000000000012e-04
1.969999999999999909e-04
1.589999999999999888e-04
1.679999999999999907e-04
2.100000000000000087e-04
2.469999999999999865e-04
2.359999999999999902e-04
1.730000000000000038e-04
1.200000000000000030e-04
5.899999999999999754e-05
-4.399999999999999886e-05
-1.759999999999999954e-04
-2.919999999999999961e-04
-3.710000000000000190e-04
-4.060000000000000024e-04
-4.169999999999999987e-04
-4.249999999999999763e-04
-4.519999999999999821e-04
-3.919999999999999873e-04
-2.970000000000000092e-04
-2.329999999999999986e-04
-1.679999999999999907e-04
-1.649999999999999991e-04
-1.240000000000000054e-04
9.999999999999999547e-07
1.090000000000000067e-04
1.669999999999999935e-04
2.410000000000000033e-04
2.700000000000000035e-04
2.709999999999999735e-04
3.049999999999999868e-04
2.849999999999999886e-04
2.320000000000000014e-04
2.999999999999999737e-04
3.469999999999999777e-04
2.790000000000000054e-04
2.059999999999999928e-04
1.379999999999999933e-04
1.250000000000000026e-04
1.119999999999999983e-04
4.100000000000000047e-05
-3.000000000000000076e-05
-1.179999999999999951e-04
-1.900000000000000105e-04
-2.759999999999999867e-04
-3.559999999999999797e-04
-3.879999999999999985e-04
-3.640000000000000115e-04
-3.029999999999999924e-04
-2.359999999999999902e-04
-1.789999999999999870e-04
-1.019999999999999992e-04
-4.100000000000000047e-05
-0.000000000000000000e+00
7.799999999999999859e-05
1.559999999999999972e-04
1.930000000000000021e-04
2.159999999999999919e-04
2.229999999999999994e-04
2.400000000000000061e-04
2.689999999999999791e-04
2.680000000000000090e-04
2.229999999999999994e-04
2.369999999999999874e-04
2.790000000000000054e-04
2.329999999999999986e-04
1.969999999999999909e-04
1.649999999999999991e-04
1.389999999999999905e-04
1.269999999999999970e-04
5.399999999999999798e-05
-7.499999999999999343e-05
-1.759999999999999954e-04
-2.259999999999999910e-04
-2.790000000000000054e-04
-3.110000000000000243e-04
-3.260000000000000094e-04
-3.660000000000000059e-04
-3.930000000000000117e-04
-3.370000000000000057e-04
-2.730000000000000222e-04
-1.540000000000000028e-04
-2.400000000000000061e-05
1.000000000000000048e-04
1.740000000000000010e-04
2.030000000000000012e-04
2.410000000000000033e-04
3.040000000000000167e-04
3.550000000000000096e-04
4.079999999999999968e-04
4.209999999999999875e-04
4.099999999999999912e-04
3.530000000000000152e-04
2.809999999999999998e-04
2.249999999999999938e-04
1.759999999999999954e-04
2.030000000000000012e-04
2.460000000000000164e-04
2.410000000000000033e-04
2.090000000000000115e-04
1.060000000000000016e-04
-7.100000000000000462e-05
-2.120000000000000031e-04
-2.730000000000000222e-04
-3.260000000000000094e-04
-3.550000000000000096e-04
-3.809999999999999910e-04
-4.629999999999999784e-04
-4.609999999999999840e-04
-3.400000000000000244e-04
-1.379999999999999933e-04
8.100000000000000375e-05
1.640000000000000019e-04
2.559999999999999884e-04
3.460000000000000076e-04
2.900000000000000017e-04
2.489999999999999809e-04
2.369999999999999874e-04
2.469999999999999865e-04
2.820000000000000241e-04
2.660000000000000146e-04
2.719999999999999979e-04
2.329999999999999986e-04
1.769999999999999926e-04
2.349999999999999930e-04
3.020000000000000223e-04
2.880000000000000073e-04
2.320000000000000014e-04
1.830000000000000029e-04
1.359999999999999989e-04
4.100000000000000047e-05
-5.899999999999999754e-05
-1.479999999999999925e-04
-2.390000000000000089e-04
-2.939999999999999905e-04
-3.159999999999999832e-04
-2.719999999999999979e-04
-3.119999999999999944e-04
-3.379999999999999758e-04
-3.110000000000000243e-04
-2.110000000000000059e-04
-6.299999999999999990e-05
5.300000000000000078e-05
1.350000000000000017e-04
2.200000000000000078e-04
2.999999999999999737e-04
3.429999999999999889e-04
3.589999999999999984e-04
3.710000000000000190e-04
3.600000000000000227e-04
3.449999999999999833e-04
3.110000000000000243e-04
2.280000000000000126e-04
2.869999999999999830e-04
3.339999999999999870e-04
2.519999999999999996e-04
1.869999999999999917e-04
1.830000000000000029e-04
1.859999999999999945e-04
1.499999999999999869e-04
4.600000000000000004e-05
-5.000000000000000240e-05
-1.450000000000000009e-04
-2.139999999999999975e-04
-3.060000000000000111e-04
-3.620000000000000171e-04
-3.989999999999999949e-04
-4.330000000000000081e-04
-3.930000000000000117e-04
-2.539999999999999940e-04
-1.379999999999999933e-04
-2.799999999999999958e-05
4.899999999999999842e-05
9.600000000000000243e-05
1.930000000000000021e-04
2.420000000000000005e-04
2.550000000000000183e-04
2.799999999999999755e-04
2.799999999999999755e-04
2.620000000000000258e-04
2.790000000000000054e-04
2.930000000000000204e-04
2.770000000000000110e-04
2.970000000000000092e-04
3.159999999999999832e-04
3.269999999999999795e-04
3.159999999999999832e-04
2.799999999999999755e-04
2.849999999999999886e-04
2.420000000000000005e-04
9.799999999999999684e-05
-6.099999999999999872e-05
-1.630000000000000047e-04
-2.249999999999999938e-04
-2.449999999999999921e-04
-2.500000000000000052e-04
-2.719999999999999979e-04
-3.420000000000000188e-04
-3.770000000000000022e-04
-3.029999999999999924e-04
-2.090000000000000115e-04
-1.179999999999999951e-04
1.099999999999999971e-05
1.060000000000000016e-04
1.800000000000000113e-04
2.750000000000000166e-04
3.269999999999999795e-04
2.840000000000000185e-04
2.390000000000000089e-04
2.489999999999999809e-04
2.500000000000000052e-04
2.739999999999999923e-04
2.689999999999999791e-04
2.539999999999999940e-04
2.669999999999999847e-04
2.339999999999999958e-04
1.700000000000000122e-04
1.069999999999999988e-04
9.299999999999999727e-05
7.399999999999999623e-05
9.999999999999999547e-07
-8.799999999999999771e-05
-1.649999999999999991e-04
-2.629999999999999959e-04
-3.020000000000000223e-04
-2.770000000000000110e-04
-2.359999999999999902e-04
-2.410000000000000033e-04
-2.610000000000000015e-04
-2.590000000000000071e-04
-2.620000000000000258e-04
-2.249999999999999938e-04
-1.440000000000000036e-04
-3.000000000000000076e-05
1.119999999999999983e-04
2.910000000000000260e-04
3.519999999999999908e-04
3.110000000000000243e-04
3.009999999999999980e-04
3.099999999999999999e-04
3.899999999999999929e-04
4.420000000000000101e-04
3.950000000000000061e-04
2.990000000000000036e-04
2.410000000000000033e-04
1.530000000000000056e-04
1.259999999999999998e-04
1.039999999999999936e-04
6.200000000000000270e-05
5.399999999999999798e-05
-8.200000000000000095e-05
-2.290000000000000098e-04
-3.480000000000000020e-04
-4.099999999999999912e-04
-3.620000000000000171e-04
-2.979999999999999793e-04
-2.649999999999999903e-04
-3.159999999999999832e-04
-3.099999999999999999e-04
-2.590000000000000071e-04
-2.359999999999999902e-04
-1.559999999999999972e-04
-4.199999999999999768e-05
2.699999999999999899e-05
1.179999999999999951e-04
2.220000000000000022e-04
2.990000000000000036e-04
3.179999999999999776e-04
2.829999999999999942e-04
3.200000000000000262e-04
3.379999999999999758e-04
3.510000000000000208e-04
3.139999999999999888e-04
2.689999999999999791e-04
3.009999999999999980e-04
3.139999999999999888e-04
3.049999999999999868e-04
2.539999999999999940e-04
1.569999999999999944e-04
9.000000000000000567e-05
7.999999999999999638e-06
-7.700000000000000139e-05
-1.530000000000000056e-04
-1.869999999999999917e-04
-2.730000000000000222e-04
-3.750000000000000078e-04
-4.760000000000000234e-04
-5.630000000000000239e-04
-5.379999999999999583e-04
-4.229999999999999819e-04
-3.220000000000000206e-04
-2.079999999999999872e-04
-8.100000000000000375e-05
1.060000000000000016e-04
3.739999999999999835e-04
5.280000000000000405e-04
5.220000000000000031e-04
4.569999999999999952e-04
3.600000000000000227e-04
3.179999999999999776e-04
3.170000000000000075e-04
3.179999999999999776e-04
2.709999999999999735e-04
2.530000000000000239e-04
2.970000000000000092e-04
2.599999999999999772e-04
2.079999999999999872e-04
1.379999999999999933e-04
1.019999999999999992e-04
7.600000000000000418e-05
-6.999999999999999895e-06
-1.090000000000000067e-04
-1.600000000000000131e-04
-2.290000000000000098e-04
-3.130000000000000187e-04
-3.690000000000000246e-04
-3.559999999999999797e-04
-3.589999999999999984e-04
-3.379999999999999758e-04
-2.629999999999999959e-04
-2.000000000000000096e-04
-1.069999999999999988e-04
-1.900000000000000105e-05
5.700000000000000314e-05
1.230000000000000082e-04
1.779999999999999898e-04
2.300000000000000070e-04
2.359999999999999902e-04
2.410000000000000033e-04
2.959999999999999849e-04
2.959999999999999849e-04
2.519999999999999996e-04
2.410000000000000033e-04
2.739999999999999923e-04
3.600000000000000227e-04
3.640000000000000115e-04
2.809999999999999998e-04
1.550000000000000000e-04
8.299999999999999815e-05
3.300000000000000253e-05
-3.600000000000000091e-05
-9.299999999999999727e-05
-1.469999999999999953e-04
-1.820000000000000057e-04
-2.249999999999999938e-04
-2.460000000000000164e-04
-2.719999999999999979e-04
-2.889999999999999774e-04
-2.889999999999999774e-04
-2.420000000000000005e-04
-2.190000000000000106e-04
-1.689999999999999879e-04
-7.499999999999999343e-05
3.000000000000000076e-06
6.399999999999999710e-05
1.359999999999999989e-04
2.120000000000000031e-04
2.629999999999999959e-04
2.939999999999999905e-04
3.249999999999999851e-04
3.879999999999999985e-04
3.710000000000000190e-04
2.640000000000000202e-04
2.359999999999999902e-04
3.319999999999999926e-04
3.499999999999999964e-04
3.330000000000000169e-04
2.640000000000000202e-04
2.030000000000000012e-04
1.399999999999999877e-04
3.100000000000000135e-05
-8.500000000000000611e-05
-1.679999999999999907e-04
-2.809999999999999998e-04
-3.690000000000000246e-04
-3.730000000000000134e-04
-3.409999999999999945e-04
-3.589999999999999984e-04
-3.280000000000000038e-04
-2.480000000000000108e-04
-2.210000000000000050e-04
-1.369999999999999961e-04
-5.300000000000000078e-05
3.000000000000000076e-05
1.010000000000000020e-04
1.849999999999999973e-04
2.610000000000000015e-04
3.260000000000000094e-04
3.229999999999999907e-04
3.240000000000000150e-04
3.510000000000000208e-04
3.260000000000000094e-04
2.539999999999999940e-04
2.190000000000000106e-04
2.590000000000000071e-04
2.320000000000000014e-04
1.939999999999999993e-04
2.030000000000000012e-04
1.840000000000000001e-04
1.740000000000000010e-04
1.450000000000000009e-04
4.199999999999999768e-05
-7.700000000000000139e-05
-2.210000000000000050e-04
-3.060000000000000111e-04
-3.089999999999999756e-04
-2.869999999999999830e-04
-3.139999999999999888e-04
-3.570000000000000040e-04
-3.379999999999999758e-04
-2.950000000000000148e-04
-2.280000000000000126e-04
-1.879999999999999890e-04
-6.499999999999999431e-05
3.300000000000000253e-05
4.699999999999999724e-05
1.600000000000000131e-04
2.669999999999999847e-04
3.069999999999999812e-04
2.820000000000000241e-04
2.390000000000000089e-04
2.349999999999999930e-04
1.769999999999999926e-04
1.359999999999999989e-04
1.830000000000000029e-04
1.759999999999999954e-04
1.210000000000000002e-04
9.600000000000000243e-05
1.169999999999999979e-04
9.699999999999999963e-05
3.999999999999999819e-06
-1.200000000000000030e-04
-2.169999999999999891e-04
-2.530000000000000239e-04
-3.089999999999999756e-04
-3.950000000000000061e-04
-4.859999999999999954e-04
-5.550000000000000462e-04
-5.419999999999999471e-04
-4.739999999999999747e-04
-3.989999999999999949e-04
-3.390000000000000001e-04
-2.680000000000000090e-04
-1.520000000000000084e-04
-6.000000000000000152e-06
1.169999999999999979e-04
1.949999999999999965e-04
2.280000000000000126e-04
2.500000000000000052e-04
2.429999999999999977e-04
2.139999999999999975e-04
2.069999999999999900e-04
1.890000000000000133e-04
1.749999999999999982e-04
1.890000000000000133e-04
1.410000000000000120e-04
8.799999999999999771e-05
8.299999999999999815e-05
1.110000000000000011e-04
1.259999999999999998e-04
8.200000000000000095e-05
-3.000000000000000076e-05
-1.589999999999999888e-04
-2.939999999999999905e-04
-4.350000000000000026e-04
-4.889999999999999599e-04
-5.220000000000000031e-04
-5.689999999999999529e-04
-5.829999999999999679e-04
-4.769999999999999934e-04
-3.879999999999999985e-04
-3.280000000000000038e-04
-2.329999999999999986e-04
-1.530000000000000056e-04
-3.100000000000000135e-05
8.799999999999999771e-05
1.160000000000000007e-04
9.299999999999999727e-05
1.090000000000000067e-04
1.430000000000000064e-04
1.769999999999999926e-04
1.730000000000000038e-04
1.010000000000000020e-04
8.700000000000000051e-05
1.479999999999999925e-04
1.810000000000000085e-04
2.200000000000000078e-04
2.139999999999999975e-04
1.250000000000000026e-04
7.600000000000000418e-05
-1.599999999999999928e-05
-1.320000000000000101e-04
-2.420000000000000005e-04
-2.820000000000000241e-04
-3.339999999999999870e-04
-4.049999999999999781e-04
-4.310000000000000137e-04
-4.189999999999999931e-04
-4.150000000000000043e-04
-3.499999999999999964e-04
-3.170000000000000075e-04
-2.919999999999999961e-04
-2.310000000000000042e-04
-1.389999999999999905e-04
-6.000000000000000152e-05
6.000000000000000152e-06
5.300000000000000078e-05
1.010000000000000020e-04
1.340000000000000045e-04
1.589999999999999888e-04
2.020000000000000040e-04
2.130000000000000003e-04
1.789999999999999870e-04
1.689999999999999879e-04
1.990000000000000124e-04
2.509999999999999753e-04
2.349999999999999930e-04
1.749999999999999982e-04
1.219999999999999974e-04
1.530000000000000056e-04
1.190000000000000058e-04
2.599999999999999840e-05
-8.700000000000000051e-05
-1.800000000000000113e-04
-2.829999999999999942e-04
-4.229999999999999819e-04
-5.360000000000000181e-04
-5.659999999999999884e-04
-5.320000000000000293e-04
-4.380000000000000213e-04
-3.629999999999999872e-04
-2.840000000000000185e-04
-2.090000000000000115e-04
-1.129999999999999955e-04
-1.599999999999999928e-05
7.799999999999999859e-05
8.899999999999999491e-05
1.060000000000000016e-04
1.219999999999999974e-04
1.169999999999999979e-04
1.330000000000000073e-04
1.340000000000000045e-04
8.899999999999999491e-05
8.600000000000000331e-05
1.399999999999999877e-04
1.920000000000000049e-04
2.489999999999999809e-04
2.469999999999999865e-04
1.540000000000000028e-04
5.599999999999999916e-05
-6.999999999999999387e-05
-2.059999999999999928e-04
-3.299999999999999982e-04
-3.780000000000000265e-04
-4.330000000000000081e-04
-5.109999999999999525e-04
-5.199999999999999544e-04
-4.859999999999999954e-04
-4.939999999999999730e-04
-4.110000000000000155e-04
-3.099999999999999999e-04
-2.480000000000000108e-04
-1.789999999999999870e-04
-9.600000000000000243e-05
-3.000000000000000076e-06
8.200000000000000095e-05
1.559999999999999972e-04
2.020000000000000040e-04
2.159999999999999919e-04
2.180000000000000134e-04
2.000000000000000096e-04
2.049999999999999956e-04
1.820000000000000057e-04
1.179999999999999951e-04
8.000000000000000654e-05
5.399999999999999798e-05
2.599999999999999840e-05
2.799999999999999958e-05
4.199999999999999768e-05
3.899999999999999929e-05
-3.800000000000000209e-05
-1.669999999999999935e-04
-2.669999999999999847e-04
-3.310000000000000225e-04
-3.919999999999999873e-04
-4.569999999999999952e-04
-4.829999999999999767e-04
-4.780000000000000178e-04
-4.879999999999999898e-04
-4.459999999999999989e-04
-3.950000000000000061e-04
-2.939999999999999905e-04
-1.869999999999999917e-04
-9.600000000000000243e-05
-3.000000000000000076e-05
7.299999999999999903e-05
1.640000000000000019e-04
2.059999999999999928e-04
2.169999999999999891e-04
2.269999999999999882e-04
2.010000000000000068e-04
1.379999999999999933e-04
9.799999999999999684e-05
1.079999999999999960e-04
1.289999999999999914e-04
1.279999999999999942e-04
1.050000000000000044e-04
1.420000000000000092e-04
1.550000000000000000e-04
1.630000000000000047e-04
9.799999999999999684e-05
6.999999999999999895e-06
-1.060000000000000016e-04
-2.130000000000000003e-04
-2.649999999999999903e-04
-3.449999999999999833e-04
-3.869999999999999742e-04
-4.220000000000000118e-04
-4.420000000000000101e-04
-4.169999999999999987e-04
-4.000000000000000192e-04
-3.840000000000000097e-04
-3.609999999999999928e-04
-2.719999999999999979e-04
-1.499999999999999869e-04
-1.900000000000000105e-05
7.600000000000000418e-05
9.500000000000000523e-05
1.299999999999999886e-04
1.659999999999999963e-04
1.369999999999999961e-04
1.359999999999999989e-04
1.669999999999999935e-04
1.310000000000000129e-04
1.330000000000000073e-04
1.299999999999999886e-04
9.799999999999999684e-05
7.399999999999999623e-05
-1.099999999999999971e-05
-5.500000000000000196e-05
-9.699999999999999963e-05
-1.359999999999999989e-04
-2.180000000000000134e-04
-3.020000000000000223e-04
-3.890000000000000228e-04
-4.249999999999999763e-04
-4.220000000000000118e-04
-4.920000000000000328e-04
-5.670000000000000127e-04
-5.010000000000000347e-04
-4.400000000000000157e-04
-3.719999999999999891e-04
-2.669999999999999847e-04
-8.799999999999999771e-05
4.500000000000000283e-05
9.100000000000000287e-05
7.200000000000000182e-05
7.899999999999999579e-05
1.010000000000000020e-04
7.600000000000000418e-05
5.000000000000000240e-05
8.600000000000000331e-05
1.060000000000000016e-04
1.190000000000000058e-04
1.279999999999999942e-04
1.669999999999999935e-04
1.640000000000000019e-04
1.510000000000000112e-04
1.379999999999999933e-04
8.399999999999999535e-05
2.300000000000000002e-05
-8.600000000000000331e-05
-1.679999999999999907e-04
-2.010000000000000068e-04
-2.539999999999999940e-04
-3.310000000000000225e-04
-3.469999999999999777e-04
-3.550000000000000096e-04
-3.480000000000000020e-04
-3.240000000000000150e-04
-3.080000000000000055e-04
-2.700000000000000035e-04
-1.930000000000000021e-04
-1.119999999999999983e-04
-5.399999999999999798e-05
1.200000000000000030e-05
9.500000000000000523e-05
1.510000000000000112e-04
1.869999999999999917e-04
1.579999999999999916e-04
8.700000000000000051e-05
1.039999999999999936e-04
1.600000000000000131e-04
2.180000000000000134e-04
2.849999999999999886e-04
2.100000000000000087e-04
1.389999999999999905e-04
1.430000000000000064e-04
1.210000000000000002e-04
1.450000000000000009e-04
1.450000000000000009e-04
8.600000000000000331e-05
-2.300000000000000002e-05
-1.550000000000000000e-04
-3.049999999999999868e-04
-3.919999999999999873e-04
-4.249999999999999763e-04
-4.659999999999999971e-04
-4.809999999999999823e-04
-3.710000000000000190e-04
-2.429999999999999977e-04
-1.540000000000000028e-04
-1.200000000000000030e-04
-6.099999999999999872e-05
-1.999999999999999909e-06
2.799999999999999958e-05
6.999999999999999387e-05
1.079999999999999960e-04
1.210000000000000002e-04
1.129999999999999955e-04
1.320000000000000101e-04
1.990000000000000124e-04
2.030000000000000012e-04
1.359999999999999989e-04
1.820000000000000057e-04
2.280000000000000126e-04
1.569999999999999944e-04
6.999999999999999387e-05
1.800000000000000046e-05
-3.999999999999999819e-06
-1.900000000000000105e-05
-9.000000000000000567e-05
-1.979999999999999881e-04
-2.999999999999999737e-04
-3.530000000000000152e-04
-3.800000000000000209e-04
-4.270000000000000249e-04
-4.099999999999999912e-04
-3.469999999999999777e-04
-3.440000000000000132e-04
-4.060000000000000024e-04
-4.169999999999999987e-04
-3.579999999999999741e-04
-2.460000000000000164e-04
-1.900000000000000105e-04
-2.799999999999999958e-05
1.330000000000000073e-04
2.779999999999999811e-04
3.209999999999999963e-04
3.359999999999999814e-04
3.299999999999999982e-04
2.410000000000000033e-04
1.119999999999999983e-04
7.600000000000000418e-05
1.759999999999999954e-04
2.750000000000000166e-04
2.900000000000000017e-04
3.359999999999999814e-04
3.319999999999999926e-04
2.770000000000000110e-04
2.550000000000000183e-04
1.530000000000000056e-04
-5.800000000000000034e-05
-2.280000000000000126e-04
-3.980000000000000248e-04
-5.400000000000000069e-04
-5.910000000000000539e-04
-5.779999999999999548e-04
-5.559999999999999621e-04
-4.600000000000000139e-04
-3.049999999999999868e-04
-2.079999999999999872e-04
-1.160000000000000007e-04
3.199999999999999855e-05
1.769999999999999926e-04
2.469999999999999865e-04
1.800000000000000113e-04
7.200000000000000182e-05
3.300000000000000253e-05
1.129999999999999955e-04
2.269999999999999882e-04
2.359999999999999902e-04
2.110000000000000059e-04
1.620000000000000075e-04
1.859999999999999945e-04
2.100000000000000087e-04
2.159999999999999919e-04
1.550000000000000000e-04
8.000000000000000654e-05
4.399999999999999886e-05
3.600000000000000091e-05
-3.300000000000000253e-05
-9.100000000000000287e-05
-1.150000000000000035e-04
-1.810000000000000085e-04
-3.119999999999999944e-04
-3.919999999999999873e-04
-4.960000000000000216e-04
-5.900000000000000296e-04
-5.659999999999999884e-04
-4.200000000000000174e-04
-2.829999999999999942e-04
-1.289999999999999914e-04
5.500000000000000196e-05
4.500000000000000283e-05
-1.599999999999999928e-05
1.500000000000000038e-05
1.079999999999999960e-04
1.079999999999999960e-04
8.000000000000000654e-05
1.299999999999999886e-04
2.159999999999999919e-04
1.810000000000000085e-04
1.169999999999999979e-04
1.169999999999999979e-04
1.269999999999999970e-04
1.410000000000000120e-04
1.029999999999999964e-04
1.039999999999999936e-04
1.469999999999999953e-04
9.699999999999999963e-05
-3.499999999999999693e-05
-1.269999999999999970e-04
-1.789999999999999870e-04
-2.889999999999999774e-04
-3.660000000000000059e-04
-4.690000000000000158e-04
-4.970000000000000459e-04
-5.379999999999999583e-04
-5.649999999999999641e-04
-4.730000000000000046e-04
-3.690000000000000246e-04
-2.489999999999999809e-04
-8.200000000000000095e-05
6.000000000000000152e-05
1.469999999999999953e-04
2.130000000000000003e-04
2.629999999999999959e-04
2.790000000000000054e-04
2.120000000000000031e-04
1.350000000000000017e-04
9.899999999999999404e-05
1.250000000000000026e-04
1.640000000000000019e-04
1.779999999999999898e-04
1.990000000000000124e-04
1.800000000000000113e-04
1.369999999999999961e-04
9.500000000000000523e-05
7.299999999999999903e-05
2.500000000000000120e-05
-9.000000000000000567e-05
-1.150000000000000035e-04
-7.399999999999999623e-05
-1.800000000000000046e-05
-4.100000000000000047e-05
-2.680000000000000090e-04
-4.910000000000000085e-04
-5.479999999999999845e-04
-5.159999999999999656e-04
-4.380000000000000213e-04
-3.910000000000000172e-04
-3.319999999999999926e-04
-2.539999999999999940e-04
-1.700000000000000122e-04
-1.219999999999999974e-04
-8.299999999999999815e-05
3.000000000000000076e-06
6.899999999999999667e-05
1.359999999999999989e-04
1.600000000000000131e-04
1.830000000000000029e-04
2.439999999999999949e-04
1.759999999999999954e-04
1.169999999999999979e-04
1.310000000000000129e-04
1.640000000000000019e-04
2.349999999999999930e-04
1.610000000000000103e-04
2.000000000000000164e-05
-2.400000000000000061e-05
-6.700000000000000226e-05
-1.540000000000000028e-04
-2.900000000000000017e-04
-4.850000000000000253e-04
-5.150000000000000498e-04
-4.620000000000000083e-04
-4.000000000000000192e-04
-5.000000000000000104e-04
-5.820000000000000520e-04
-4.609999999999999840e-04
-2.229999999999999994e-04
-5.899999999999999754e-05
1.160000000000000007e-04
2.599999999999999772e-04
2.649999999999999903e-04
2.930000000000000204e-04
3.190000000000000019e-04
3.429999999999999889e-04
2.959999999999999849e-04
2.159999999999999919e-04
2.130000000000000003e-04
1.310000000000000129e-04
3.399999999999999973e-05
1.179999999999999951e-04
1.879999999999999890e-04
1.440000000000000036e-04
1.029999999999999964e-04
5.000000000000000409e-06
-2.699999999999999899e-05
-1.399999999999999979e-05
-6.399999999999999710e-05
-1.079999999999999960e-04
-9.399999999999999448e-05
-5.199999999999999680e-05
-1.200000000000000030e-05
-3.300000000000000253e-05
-7.700000000000000139e-05
-1.559999999999999972e-04
-2.689999999999999791e-04
-3.579999999999999741e-04
-4.159999999999999744e-04
-3.959999999999999762e-04
-2.779999999999999811e-04
-1.669999999999999935e-04
-1.599999999999999928e-05
5.099999999999999960e-05
5.099999999999999960e-05
2.900000000000000017e-05
1.589999999999999888e-04
3.299999999999999982e-04
4.070000000000000267e-04
3.710000000000000190e-04
2.640000000000000202e-04
2.020000000000000040e-04
1.800000000000000113e-04
1.669999999999999935e-04
1.420000000000000092e-04
1.079999999999999960e-04
9.000000000000000567e-05
8.700000000000000051e-05
3.100000000000000135e-05
-8.700000000000000051e-05
-2.180000000000000134e-04
-3.710000000000000190e-04
-4.789999999999999879e-04
-5.119999999999999768e-04
-5.330000000000000536e-04
-5.519999999999999733e-04
-4.840000000000000010e-04
-3.530000000000000152e-04
-1.789999999999999870e-04
1.099999999999999971e-05
1.469999999999999953e-04
1.689999999999999879e-04
8.600000000000000331e-05
2.500000000000000120e-05
5.199999999999999680e-05
6.700000000000000226e-05
3.899999999999999929e-05
1.900000000000000105e-05
8.000000000000000654e-05
1.050000000000000044e-04
8.399999999999999535e-05
1.060000000000000016e-04
1.250000000000000026e-04
1.420000000000000092e-04
1.920000000000000049e-04
2.320000000000000014e-04
1.649999999999999991e-04
9.899999999999999404e-05
-4.800000000000000122e-05
-2.030000000000000012e-04
-3.849999999999999798e-04
-5.100000000000000366e-04
-4.910000000000000085e-04
-5.220000000000000031e-04
-5.220000000000000031e-04
-4.859999999999999954e-04
-4.569999999999999952e-04
-4.209999999999999875e-04
-4.800000000000000122e-04
-4.609999999999999840e-04
-3.660000000000000059e-04
-1.949999999999999965e-04
-6.200000000000000270e-05
-3.999999999999999819e-06
5.599999999999999916e-05
8.100000000000000375e-05
5.000000000000000240e-05
2.799999999999999958e-05
8.700000000000000051e-05
1.379999999999999933e-04
1.039999999999999936e-04
6.299999999999999990e-05
6.200000000000000270e-05
1.079999999999999960e-04
2.669999999999999847e-04
2.840000000000000185e-04
1.779999999999999898e-04
6.700000000000000226e-05
-1.200000000000000030e-04
-2.369999999999999874e-04
-2.579999999999999828e-04
-2.799999999999999755e-04
-2.669999999999999847e-04
-2.500000000000000052e-04
-2.860000000000000129e-04
-3.319999999999999926e-04
-3.020000000000000223e-04
-2.159999999999999919e-04
-1.289999999999999914e-04
-1.389999999999999905e-04
-1.100000000000000039e-04
-8.700000000000000051e-05
-5.800000000000000034e-05
-5.000000000000000409e-06
-4.899999999999999842e-05
-9.000000000000000567e-05
1.500000000000000038e-05
1.710000000000000094e-04
3.020000000000000223e-04
3.530000000000000152e-04
2.429999999999999977e-04
8.600000000000000331e-05
6.099999999999999872e-05
1.359999999999999989e-04
1.939999999999999993e-04
1.479999999999999925e-04
1.240000000000000054e-04
7.600000000000000418e-05
1.200000000000000030e-05
-1.489999999999999897e-04
-3.170000000000000075e-04
-3.499999999999999964e-04
-4.330000000000000081e-04
-5.689999999999999529e-04
-6.390000000000000280e-04
-6.650000000000000095e-04
-4.949999999999999973e-04
-2.610000000000000015e-04
-2.020000000000000040e-04
-1.840000000000000001e-04
-1.840000000000000001e-04
-1.600000000000000131e-04
-7.700000000000000139e-05
6.000000000000000152e-05
1.589999999999999888e-04
2.629999999999999959e-04
3.009999999999999980e-04
3.099999999999999999e-04
3.130000000000000187e-04
3.060000000000000111e-04
3.989999999999999949e-04
4.670000000000000214e-04
4.270000000000000249e-04
3.060000000000000111e-04
2.249999999999999938e-04
2.120000000000000031e-04
7.299999999999999903e-05
-5.800000000000000034e-05
-4.100000000000000047e-05
-6.000000000000000152e-05
-2.660000000000000146e-04
-4.609999999999999840e-04
-5.190000000000000386e-04
-4.840000000000000010e-04
-4.739999999999999747e-04
-4.440000000000000045e-04
-3.800000000000000209e-04
-3.339999999999999870e-04
-2.750000000000000166e-04
-2.369999999999999874e-04
-2.439999999999999949e-04
-2.010000000000000068e-04
-1.489999999999999897e-04
-1.550000000000000000e-04
-1.219999999999999974e-04
4.699999999999999724e-05
2.779999999999999811e-04
4.719999999999999803e-04
4.829999999999999767e-04
3.879999999999999985e-04
3.280000000000000038e-04
3.660000000000000059e-04
5.159999999999999656e-04
5.310000000000000050e-04
3.649999999999999816e-04
1.379999999999999933e-04
8.700000000000000051e-05
3.199999999999999855e-05
-6.299999999999999990e-05
-7.899999999999999579e-05
-9.600000000000000243e-05
-1.630000000000000047e-04
-2.509999999999999753e-04
-2.979999999999999793e-04
-2.790000000000000054e-04
-2.509999999999999753e-04
-2.820000000000000241e-04
-3.989999999999999949e-04
-5.330000000000000536e-04
-4.929999999999999487e-04
-3.040000000000000167e-04
-1.949999999999999965e-04
-1.789999999999999870e-04
-2.149999999999999947e-04
-2.290000000000000098e-04
-6.099999999999999872e-05
1.379999999999999933e-04
1.730000000000000038e-04
1.740000000000000010e-04
6.399999999999999710e-05
-2.000000000000000164e-05
-2.400000000000000061e-05
-1.090000000000000067e-04
-1.820000000000000057e-04
-9.999999999999999547e-07
3.289999999999999739e-04
5.019999999999999506e-04
5.019999999999999506e-04
3.200000000000000262e-04
1.700000000000000122e-04
4.500000000000000283e-05
-3.300000000000000253e-05
-1.999999999999999909e-06
1.269999999999999970e-04
8.799999999999999771e-05
-2.039999999999999984e-04
-5.580000000000000107e-04
-5.439999999999999957e-04
-2.100000000000000087e-04
3.000000000000000076e-06
-6.200000000000000270e-05
-1.440000000000000036e-04
-4.899999999999999842e-05
6.899999999999999667e-05
1.530000000000000056e-04
2.730000000000000222e-04
1.969999999999999909e-04
-1.259999999999999998e-04
-1.959999999999999937e-04
-2.400000000000000061e-05
1.399999999999999979e-05
1.129999999999999955e-04
2.829999999999999942e-04
3.759999999999999779e-04
6.220000000000000485e-04
8.400000000000000348e-04
8.909999999999999734e-04
7.529999999999999801e-04
4.090000000000000211e-04
3.199999999999999855e-05
-2.700000000000000035e-04
-4.169999999999999987e-04
-4.899999999999999842e-04
-5.730000000000000501e-04
-7.749999999999999728e-04
-8.779999999999999827e-04
-7.370000000000000249e-04
-5.410000000000000312e-04
-3.719999999999999891e-04
-2.010000000000000068e-04
-3.600000000000000091e-05
-1.289999999999999914e-04
-2.369999999999999874e-04
-1.569999999999999944e-04
-6.000000000000000152e-06
2.489999999999999809e-04
4.929999999999999487e-04
4.730000000000000046e-04
4.459999999999999989e-04
5.119999999999999768e-04
4.180000000000000230e-04
2.320000000000000014e-04
2.000000000000000164e-05
1.489999999999999897e-04
2.790000000000000054e-04
2.349999999999999930e-04
1.129999999999999955e-04
2.320000000000000014e-04
2.229999999999999994e-04
8.500000000000000611e-05
5.099999999999999960e-05
1.060000000000000016e-04
-3.199999999999999855e-05
-2.339999999999999958e-04
-2.680000000000000090e-04
-4.200000000000000174e-04
-6.759999999999999516e-04
-8.149999999999999693e-04
-8.720000000000000537e-04
-8.999999999999999754e-04
-8.120000000000000048e-04
-4.330000000000000081e-04
-4.000000000000000327e-05
3.310000000000000225e-04
4.960000000000000216e-04
3.589999999999999984e-04
3.240000000000000150e-04
3.770000000000000022e-04
3.919999999999999873e-04
2.640000000000000202e-04
6.799999999999999946e-05
-1.430000000000000064e-04
-3.800000000000000209e-05
4.780000000000000178e-04
7.320000000000000118e-04
6.970000000000000284e-04
6.549999999999999833e-04
4.220000000000000118e-04
2.669999999999999847e-04
1.379999999999999933e-04
-8.200000000000000095e-05
-2.180000000000000134e-04
-3.130000000000000187e-04
-2.750000000000000166e-04
-1.289999999999999914e-04
-2.420000000000000005e-04
-5.320000000000000293e-04
-8.069999999999999916e-04
-6.650000000000000095e-04
-3.589999999999999984e-04
-1.620000000000000075e-04
8.399999999999999535e-05
2.130000000000000003e-04
1.700000000000000122e-04
1.399999999999999979e-05
1.520000000000000084e-04
2.320000000000000014e-04
5.500000000000000196e-05
-2.779999999999999811e-04
-2.530000000000000239e-04
9.299999999999999727e-05
4.530000000000000064e-04
6.480000000000000300e-04
4.270000000000000249e-04
1.050000000000000044e-04
-9.899999999999999404e-05
-4.399999999999999886e-05
1.920000000000000049e-04
1.369999999999999961e-04
-9.699999999999999963e-05
-4.490000000000000176e-04
-4.870000000000000197e-04
-4.000000000000000192e-04
-4.719999999999999803e-04
-4.690000000000000158e-04
-3.699999999999999947e-04
-1.450000000000000009e-04
6.000000000000000152e-06
-2.599999999999999840e-05
-4.279999999999999950e-04
-7.799999999999999859e-04
-7.799999999999999859e-04
-5.349999999999999938e-04
-4.789999999999999879e-04
-2.220000000000000022e-04
1.979999999999999881e-04
7.860000000000000233e-04
1.093999999999999920e-03
6.790000000000000245e-04
1.689999999999999879e-04
8.399999999999999535e-05
3.249999999999999851e-04
1.859999999999999945e-04
9.699999999999999963e-05
1.299999999999999886e-04
1.090000000000000067e-04
6.499999999999999431e-05
-7.200000000000000182e-05
-1.900000000000000105e-05
-7.399999999999999623e-05
-1.820000000000000057e-04
-1.050000000000000044e-04
1.489999999999999897e-04
-2.390000000000000089e-04
-6.459999999999999814e-04
-6.179999999999999513e-04
-5.479999999999999845e-04
-7.619999999999999820e-04
-8.710000000000000294e-04
-6.260000000000000373e-04
-3.519999999999999908e-04
-2.310000000000000042e-04
1.129999999999999955e-04
6.449999999999999570e-04
1.003999999999999901e-03
1.100999999999999982e-03
6.470000000000000057e-04
2.369999999999999874e-04
1.379999999999999933e-04
3.649999999999999816e-04
5.829999999999999679e-04
3.980000000000000248e-04
3.690000000000000246e-04
6.700000000000000226e-04
8.409999999999999507e-04
1.007000000000000083e-03
9.529999999999999626e-04
1.025000000000000086e-03
8.769999999999999584e-04
7.129999999999999836e-04
4.339999999999999782e-04
1.269999999999999970e-04
-2.620000000000000258e-04
-2.139999999999999975e-04
1.699999999999999987e-05
2.420000000000000005e-04
3.209999999999999963e-04
3.970000000000000005e-04
4.260000000000000006e-04
1.219999999999999974e-04
-2.320000000000000014e-04
-6.199999999999999999e-04
-5.879999999999999810e-04
-5.000000000000000409e-06
3.469999999999999777e-04
3.490000000000000263e-04
4.159999999999999744e-04
4.539999999999999765e-04
2.439999999999999949e-04
-7.999999999999999638e-06
-2.110000000000000059e-04
-1.840000000000000001e-04
-1.540000000000000028e-04
-2.699999999999999899e-05
6.899999999999999667e-05
1.700000000000000122e-04
2.860000000000000129e-04
3.910000000000000172e-04
1.410000000000000120e-04
-5.590000000000000351e-04
-8.220000000000000310e-04
-8.880000000000000089e-04
-9.030000000000000483e-04
-6.199999999999999999e-04
-5.230000000000000274e-04
-3.609999999999999928e-04
-2.199999999999999943e-05
-8.799999999999999771e-05
-4.270000000000000249e-04
-4.929999999999999487e-04
-4.780000000000000178e-04
-5.299999999999999807e-04
-4.330000000000000081e-04
-2.199999999999999943e-05
1.979999999999999881e-04
2.310000000000000042e-04
1.090000000000000067e-04
5.099999999999999960e-05
1.530000000000000056e-04
9.000000000000000228e-06
-2.790000000000000054e-04
-2.020000000000000040e-04
-1.669999999999999935e-04
-2.429999999999999977e-04
-1.430000000000000064e-04
-3.229999999999999907e-04
-3.330000000000000169e-04
-1.489999999999999897e-04
4.199999999999999768e-05
1.200000000000000030e-04
-4.899999999999999842e-05
-2.620000000000000258e-04
-3.469999999999999777e-04
-4.150000000000000043e-04
-4.739999999999999747e-04
-3.930000000000000117e-04
7.100000000000000462e-05
5.659999999999999884e-04
6.930000000000000396e-04
3.640000000000000115e-04
1.869999999999999917e-04
-4.199999999999999768e-05
-2.500000000000000052e-04
-1.079999999999999960e-04
1.369999999999999961e-04
4.040000000000000080e-04
5.760000000000000146e-04
5.339999999999999695e-04
4.070000000000000267e-04
1.090000000000000067e-04
-1.840000000000000001e-04
8.000000000000000654e-05
6.440000000000000412e-04
8.019999999999999785e-04
6.470000000000000057e-04
6.520000000000000188e-04
4.099999999999999912e-04
-1.369999999999999961e-04
-4.840000000000000010e-04
-7.169999999999999724e-04
-8.620000000000000275e-04
-8.940000000000000464e-04
-9.089999999999999773e-04
-9.129999999999999661e-04
-9.100000000000000016e-04
-9.110000000000000259e-04
-9.120000000000000502e-04
-9.139999999999999904e-04
-9.129999999999999661e-04
-9.139999999999999904e-04
-9.139999999999999904e-04
-6.679999999999999740e-04
-2.369999999999999874e-04
-2.069999999999999900e-04
-1.450000000000000009e-04
-1.769999999999999926e-04
-6.279999999999999775e-04
-7.150000000000000322e-04
-5.890000000000000053e-04
-5.259999999999999919e-04
-6.149999999999999868e-04
-6.489999999999999459e-04
-3.319999999999999926e-04
-3.999999999999999819e-06
2.190000000000000106e-04
3.570000000000000040e-04
3.280000000000000038e-04
2.130000000000000003e-04
-2.750000000000000166e-04
-5.619999999999999996e-04
-7.179999999999999967e-04
-7.950000000000000252e-04
-6.669999999999999497e-04
-5.820000000000000520e-04
-7.879999999999999635e-04
-6.660000000000000338e-04
-2.069999999999999900e-04
-2.779999999999999811e-04
-4.499999999999999877e-04
-2.629999999999999959e-04
-1.210000000000000002e-04
-2.699999999999999899e-05
6.200000000000000270e-05
-2.699999999999999899e-05
-2.599999999999999772e-04
-3.299999999999999982e-04
-7.600000000000000418e-05
-1.610000000000000103e-04
-3.860000000000000041e-04
-5.289999999999999564e-04
-3.280000000000000038e-04
-2.259999999999999910e-04
-2.539999999999999940e-04
-4.960000000000000216e-04
-8.059999999999999673e-04
-8.840000000000000201e-04
-9.030000000000000483e-04
-9.129999999999999661e-04
-9.100000000000000016e-04
-8.729999999999999696e-04
-8.750000000000000182e-04
-9.039999999999999642e-04
-9.079999999999999530e-04
-9.139999999999999904e-04
-9.110000000000000259e-04
-7.640000000000000306e-04
-1.600000000000000131e-04
3.159999999999999832e-04
2.689999999999999791e-04
-1.689999999999999879e-04
-3.970000000000000005e-04
-5.490000000000000088e-04
-4.290000000000000193e-04
-2.339999999999999958e-04
-2.169999999999999891e-04
-2.239999999999999966e-04
-3.999999999999999819e-06
1.500000000000000038e-05
-3.199999999999999855e-05
-2.799999999999999755e-04
-5.259999999999999919e-04
-7.919999999999999523e-04
-8.750000000000000182e-04
-9.020000000000000240e-04
-2.719999999999999979e-04
2.079999999999999872e-04
6.499999999999999431e-05
-5.770000000000000389e-04
-8.260000000000000198e-04
-8.880000000000000089e-04
-9.060000000000000128e-04
-9.049999999999999885e-04
-9.150000000000000147e-04
-5.360000000000000181e-04
-2.620000000000000258e-04
-3.440000000000000132e-04
-5.649999999999999641e-04
-8.210000000000000067e-04
-8.909999999999999734e-04
-9.079999999999999530e-04
-8.940000000000000464e-04
-2.400000000000000061e-04
2.159999999999999919e-04
5.689999999999999529e-04
9.799999999999999684e-04
1.118000000000000070e-03
1.118999999999999986e-03
1.463000000000000108e-03
1.585000000000000037e-03
1.585000000000000037e-03
1.391000000000000092e-03
1.172999999999999998e-03
1.033000000000000064e-03
1.280000000000000105e-03
1.199999999999999895e-03
6.960000000000000041e-04
2.930000000000000204e-04
-5.899999999999999754e-05
-9.299999999999999727e-05
-1.250000000000000026e-04
-2.280000000000000126e-04
-5.850000000000000165e-04
-8.220000000000000310e-04
-8.840000000000000201e-04
-9.070000000000000371e-04
-5.990000000000000316e-04
-6.340000000000000149e-04
-4.960000000000000216e-04
-1.569999999999999944e-04
1.659999999999999963e-04
3.600000000000000091e-05
6.499999999999999431e-05
3.609999999999999928e-04
3.759999999999999779e-04
3.440000000000000132e-04
6.499999999999999431e-05
-3.139999999999999888e-04
4.199999999999999768e-05
3.310000000000000225e-04
3.780000000000000265e-04
3.440000000000000132e-04
2.059999999999999928e-04
-2.169999999999999891e-04
-4.970000000000000459e-04
-2.449999999999999921e-04
1.789999999999999870e-04
5.670000000000000127e-04
7.609999999999999577e-04
4.270000000000000249e-04
-3.640000000000000115e-04
-7.690000000000000438e-04
-8.720000000000000537e-04
-9.020000000000000240e-04
-7.739999999999999485e-04
-7.330000000000000361e-04
-8.199999999999999824e-04
-8.909999999999999734e-04
-9.030000000000000483e-04
-9.110000000000000259e-04
-9.079999999999999530e-04
-7.209999999999999612e-04
-6.220000000000000485e-04
-8.170000000000000179e-04
-8.890000000000000333e-04
-9.060000000000000128e-04
-4.119999999999999856e-04
1.119999999999999983e-04
9.179999999999999792e-04
9.349999999999999587e-04
3.289999999999999739e-04
-7.100000000000000462e-05
-2.990000000000000036e-04
1.029999999999999964e-04
6.080000000000000335e-04
2.599999999999999772e-04
5.700000000000000314e-05
-1.990000000000000124e-04
-6.419999999999999925e-04
-7.569999999999999689e-04
-4.879999999999999898e-04
-5.310000000000000050e-04
-8.170000000000000179e-04
-8.880000000000000089e-04
-9.009999999999999997e-04
-9.120000000000000502e-04
-9.150000000000000147e-04
-9.129999999999999661e-04
-9.129999999999999661e-04
-9.150000000000000147e-04
-9.120000000000000502e-04
-9.139999999999999904e-04
-9.150000000000000147e-04
-9.100000000000000016e-04
-9.120000000000000502e-04
-9.120000000000000502e-04
-9.139999999999999904e-04
-9.110000000000000259e-04
-9.070000000000000371e-04
-3.420000000000000188e-04
3.209999999999999963e-04
9.030000000000000483e-04
1.392999999999999924e-03
1.485999999999999908e-03
1.418999999999999906e-03
1.585000000000000037e-03
1.585000000000000037e-03
1.585000000000000037e-03
1.585000000000000037e-03
1.585000000000000037e-03
1.384999999999999946e-03
1.427000000000000100e-03
1.585000000000000037e-03
1.185000000000000072e-03
3.510000000000000208e-04
-4.029999999999999837e-04
-7.749999999999999728e-04
-8.710000000000000294e-04
-8.999999999999999754e-04
-9.139999999999999904e-04
-9.110000000000000259e-04
-9.110000000000000259e-04
-9.100000000000000016e-04
-9.129999999999999661e-04
-9.089999999999999773e-04
-9.110000000000000259e-04
-9.120000000000000502e-04
-7.889999999999999878e-04
-8.339999999999999974e-04
-8.239999999999999712e-04
-8.940000000000000464e-04
-7.720000000000000083e-04
-7.429999999999999539e-04
-6.740000000000000114e-04
-4.670000000000000214e-04
-5.399999999999999798e-05
4.650000000000000270e-04
9.060000000000000128e-04
1.392000000000000008e-03
1.585000000000000037e-03
1.585000000000000037e-03
1.585000000000000037e-03
1.585000000000000037e-03
1.585000000000000037e-03
1.585000000000000037e-03
1.585000000000000037e-03
1.252000000000000075e-03
6.160000000000000111e-04
4.350000000000000026e-04
5.749999999999999903e-04
5.980000000000000072e-04
7.460000000000000268e-04
8.300000000000000086e-04
7.510000000000000399e-04
3.519999999999999908e-04
1.019999999999999992e-04
2.190000000000000106e-04
-1.200000000000000030e-05
-2.860000000000000129e-04
-3.110000000000000243e-04
-8.100000000000000375e-05
2.550000000000000183e-04
2.770000000000000110e-04
2.000000000000000164e-05
-2.689999999999999791e-04
-2.290000000000000098e-04
-2.339999999999999958e-04
-6.250000000000000130e-04
-8.300000000000000086e-04
-8.919999999999999978e-04
-9.039999999999999642e-04
-9.070000000000000371e-04
-9.110000000000000259e-04
-3.710000000000000190e-04
2.480000000000000108e-04
-1.840000000000000001e-04
-3.840000000000000097e-04
-4.910000000000000085e-04
-4.650000000000000270e-04
-5.569999999999999864e-04
-5.109999999999999525e-04
-2.559999999999999884e-04
2.699999999999999899e-05
5.379999999999999583e-04
1.585000000000000037e-03
1.585000000000000037e-03
1.585000000000000037e-03
1.585000000000000037e-03
1.585000000000000037e-03
1.585000000000000037e-03
1.126999999999999964e-03
6.639999999999999852e-04
4.070000000000000267e-04
4.650000000000000270e-04
2.449999999999999921e-04
-3.640000000000000115e-04
-7.649999999999999465e-04
-8.720000000000000537e-04
-9.030000000000000483e-04
-9.100000000000000016e-04
-9.129999999999999661e-04
-9.129999999999999661e-04
-9.120000000000000502e-04
-9.120000000000000502e-04
-9.120000000000000502e-04
-9.110000000000000259e-04
-9.100000000000000016e-04
-9.110000000000000259e-04
-9.100000000000000016e-04
-9.139999999999999904e-04
-9.139999999999999904e-04
-4.159999999999999744e-04
-6.600000000000000506e-05
2.719999999999999979e-04
6.489999999999999459e-04
1.098999999999999934e-03
1.585000000000000037e-03
1.585000000000000037e-03
1.585000000000000037e-03
1.480999999999999895e-03
1.585000000000000037e-03
1.585000000000000037e-03
1.265999999999999981e-03
1.193999999999999966e-03
9.629999999999999888e-04
4.820000000000000066e-04
2.010000000000000068e-04
5.069999999999999637e-04
8.440000000000000236e-04
1.118999999999999986e-03
7.100000000000000191e-04
1.289999999999999914e-04
-5.599999999999999509e-04
-8.159999999999999936e-04
-8.829999999999999958e-04
-9.030000000000000483e-04
-9.079999999999999530e-04
-9.139999999999999904e-04
-9.110000000000000259e-04
-9.129999999999999661e-04
-9.139999999999999904e-04
-9.110000000000000259e-04
-9.150000000000000147e-04
-9.150000000000000147e-04
-9.110000000000000259e-04
-9.129999999999999661e-04
-9.110000000000000259e-04
-9.129999999999999661e-04
-9.150000000000000147e-04
-9.129999999999999661e-04
-9.150000000000000147e-04
-9.129999999999999661e-04
-9.139999999999999904e-04
-9.150000000000000147e-04
-9.129999999999999661e-04
-9.139999999999999904e-04
-3.550000000000000096e-04
1.920000000000000049e-04
5.720000000000000258e-04
9.380000000000000317e-04
1.172000000000000082e-03
1.585000000000000037e-03
1.585000000000000037e-03
1.585000000000000037e-03
1.585000000000000037e-03
1.585000000000000037e-03
1.585000000000000037e-03
1.585000000000000037e-03
1.585000000000000037e-03
1.585000000000000037e-03
1.585000000000000037e-03
1.585000000000000037e-03
1.585000000000000037e-03
1.585000000000000037e-03
1.569000000000000082e-03
1.446000000000000020e-03
1.180999999999999975e-03
1.296999999999999976e-03
9.399999999999999719e-04
8.050000000000000515e-04
4.600000000000000139e-04
-2.860000000000000129e-04
-7.429999999999999539e-04
-8.689999999999999808e-04
-8.989999999999999511e-04
-9.079999999999999530e-04
-9.129999999999999661e-04
-9.100000000000000016e-04
-9.110000000000000259e-04
-9.150000000000000147e-04
-9.089999999999999773e-04
-9.110000000000000259e-04
-9.150000000000000147e-04
-9.079999999999999530e-04
-9.150000000000000147e-04
-8.919999999999999978e-04
6.899999999999999667e-05
6.809999999999999647e-04
1.105000000000000079e-03
1.585000000000000037e-03
1.585000000000000037e-03
1.585000000000000037e-03
1.585000000000000037e-03
1.585000000000000037e-03
1.585000000000000037e-03
1.585000000000000037e-03
1.585000000000000037e-03
1.585000000000000037e-03
1.585000000000000037e-03
1.585000000000000037e-03
1.585000000000000037e-03
1.585000000000000037e-03
1.129000000000000012e-03
6.099999999999999737e-04
5.839999999999999922e-04
5.280000000000000405e-04
5.649999999999999641e-04
5.630000000000000239e-04
6.980000000000000527e-04
8.679999999999999565e-04
8.599999999999999789e-04
8.329999999999999731e-04
7.600000000000000418e-04
3.249999999999999851e-04
-1.320000000000000101e-04
-2.620000000000000258e-04
1.299999999999999920e-05
5.230000000000000274e-04
5.199999999999999544e-04
-3.449999999999999833e-04
-7.649999999999999465e-04
-8.660000000000000163e-04
-8.620000000000000275e-04
-6.260000000000000373e-04
-7.429999999999999539e-04
-8.670000000000000406e-04
-9.020000000000000240e-04
-9.110000000000000259e-04
-9.049999999999999885e-04
-9.100000000000000016e-04
-9.139999999999999904e-04
-7.089999999999999948e-04
-8.570000000000000144e-04
-9.009999999999999997e-04
-9.079999999999999530e-04
-9.129999999999999661e-04
-9.150000000000000147e-04
-9.100000000000000016e-04
-9.129999999999999661e-04
-9.150000000000000147e-04
-9.129999999999999661e-04
-9.110000000000000259e-04
-9.120000000000000502e-04
-9.150000000000000147e-04
-9.129999999999999661e-04
-8.769999999999999584e-04
-3.249999999999999851e-04
3.559999999999999797e-04
1.100999999999999982e-03
1.428999999999999932e-03
1.345000000000000058e-03
1.196000000000000014e-03
1.585000000000000037e-03
1.425999999999999967e-03
1.069999999999999988e-03
9.560000000000000355e-04
1.157000000000000042e-03
1.137999999999999906e-03
7.500000000000000156e-04
3.460000000000000076e-04
7.240000000000000342e-04
1.263000000000000017e-03
8.400000000000000348e-04
3.499999999999999693e-05
-2.680000000000000090e-04
-2.699999999999999899e-05
6.449999999999999570e-04
1.049000000000000019e-03
7.929999999999999766e-04
4.110000000000000155e-04
-8.100000000000000375e-05
-6.909999999999999910e-04
-8.509999999999999769e-04
-8.959999999999999866e-04
-6.229999999999999644e-04
2.880000000000000073e-04
7.720000000000000083e-04
2.939999999999999905e-04
-2.329999999999999986e-04
-2.049999999999999956e-04
1.769999999999999926e-04
6.769999999999999759e-04
9.169999999999999549e-04
9.060000000000000128e-04
6.480000000000000300e-04
5.990000000000000316e-04
6.830000000000000134e-04
1.002999999999999985e-03
1.183000000000000024e-03
8.000000000000000383e-04
5.060000000000000478e-04
1.779999999999999898e-04
-1.589999999999999888e-04
-1.399999999999999877e-04
4.550000000000000008e-04
8.080000000000000160e-04
8.180000000000000422e-04
6.499999999999999702e-04
5.810000000000000277e-04
1.620000000000000075e-04
-6.000000000000000152e-06
7.100000000000000462e-05
2.199999999999999943e-05
-1.299999999999999886e-04
-2.329999999999999986e-04
-3.229999999999999907e-04
-1.050000000000000044e-04
2.010000000000000068e-04
3.690000000000000246e-04
4.009999999999999893e-04
9.200000000000000007e-05
-3.860000000000000041e-04
-4.650000000000000270e-04
-4.690000000000000158e-04
-6.310000000000000504e-04
-7.630000000000000063e-04
-8.720000000000000537e-04
-9.079999999999999530e-04
-9.079999999999999530e-04
-9.110000000000000259e-04
-4.809999999999999823e-04
-1.630000000000000047e-04
-1.999999999999999909e-06
-1.190000000000000058e-04
-4.749999999999999990e-04
-6.780000000000000002e-04
-7.020000000000000415e-04
-5.119999999999999768e-04
-3.139999999999999888e-04
4.000000000000000327e-05
5.379999999999999583e-04
1.177000000000000095e-03
1.585000000000000037e-03
1.585000000000000037e-03
1.585000000000000037e-03
1.585000000000000037e-03
1.585000000000000037e-03
1.585000000000000037e-03
1.585000000000000037e-03
1.585000000000000037e-03
1.585000000000000037e-03
1.585000000000000037e-03
1.585000000000000037e-03
1.585000000000000037e-03
1.585000000000000037e-03
1.585000000000000037e-03
1.585000000000000037e-03
1.585000000000000037e-03
1.585000000000000037e-03
1.309000000000000051e-03
8.369999999999999619e-04
2.959999999999999849e-04
-1.659999999999999963e-04
-4.640000000000000027e-04
-5.670000000000000127e-04
-7.389999999999999651e-04
-8.660000000000000163e-04
-8.949999999999999623e-04
-9.049999999999999885e-04
-9.089999999999999773e-04
-9.129999999999999661e-04
-9.129999999999999661e-04
-9.129999999999999661e-04
-9.110000000000000259e-04
-9.150000000000000147e-04
-9.129999999999999661e-04
-9.150000000000000147e-04
-9.079999999999999530e-04
-9.120000000000000502e-04
-9.150000000000000147e-04
-9.139999999999999904e-04
-2.999999999999999737e-04
7.700000000000000139e-05
3.629999999999999872e-04
5.289999999999999564e-04
4.589999999999999896e-04
-1.740000000000000010e-04
-7.230000000000000098e-04
-8.610000000000000032e-04
-9.009999999999999997e-04
-9.060000000000000128e-04
-9.139999999999999904e-04
-9.129999999999999661e-04
-9.139999999999999904e-04
-9.139999999999999904e-04
-9.150000000000000147e-04
-9.129999999999999661e-04
-9.120000000000000502e-04
-9.110000000000000259e-04
-9.049999999999999885e-04
-9.139999999999999904e-04
-9.110000000000000259e-04
-9.150000000000000147e-04
-9.139999999999999904e-04
-8.769999999999999584e-04
-8.200000000000000095e-05
2.229999999999999994e-04
-4.690000000000000158e-04
-5.460000000000000443e-04
-3.660000000000000059e-04
-1.230000000000000082e-04
-2.369999999999999874e-04
-1.550000000000000000e-04
5.039999999999999992e-04
1.397000000000000021e-03
1.585000000000000037e-03
1.585000000000000037e-03
1.585000000000000037e-03
1.585000000000000037e-03
1.585000000000000037e-03
1.585000000000000037e-03
1.585000000000000037e-03
1.585000000000000037e-03
1.585000000000000037e-03
1.431999999999999896e-03
8.859999999999999603e-04
7.630000000000000063e-04
9.470000000000000336e-04
1.374000000000000004e-03
1.585000000000000037e-03
1.564999999999999985e-03
9.820000000000000170e-04
5.940000000000000184e-04
2.030000000000000012e-04
-9.000000000000000567e-05
-2.519999999999999996e-04
-2.910000000000000260e-04
-3.390000000000000001e-04
-5.349999999999999938e-04
-7.979999999999999897e-04
-8.790000000000000070e-04
-8.210000000000000067e-04
-8.610000000000000032e-04
-8.999999999999999754e-04
-9.060000000000000128e-04
-9.120000000000000502e-04
-9.079999999999999530e-04
-9.150000000000000147e-04
-9.129999999999999661e-04
-9.070000000000000371e-04
-9.129999999999999661e-04
-9.120000000000000502e-04
-9.100000000000000016e-04
-9.110000000000000259e-04
-6.019999999999999961e-04
7.600000000000000418e-05
3.950000000000000061e-04
9.039999999999999642e-04
1.585000000000000037e-03
1.585000000000000037e-03
1.585000000000000037e-03
1.585000000000000037e-03
1.585000000000000037e-03
1.234000000000000071e-03
7.579999999999999932e-04
8.989999999999999511e-04
8.840000000000000201e-04
3.919999999999999873e-04
-1.900000000000000105e-04
-4.820000000000000066e-04
-7.900000000000000121e-04
-7.370000000000000249e-04
-3.800000000000000209e-04
-1.800000000000000046e-05
5.529999999999999976e-04
1.505999999999999960e-03
1.585000000000000037e-03
1.585000000000000037e-03
1.585000000000000037e-03
1.585000000000000037e-03
1.585000000000000037e-03
1.585000000000000037e-03
1.585000000000000037e-03
1.585000000000000037e-03
1.585000000000000037e-03
1.585000000000000037e-03
1.585000000000000037e-03
1.585000000000000037e-03
1.585000000000000037e-03
1.585000000000000037e-03
1.585000000000000037e-03
1.165000000000000020e-03
8.210000000000000067e-04
4.119999999999999856e-04
3.600000000000000091e-05
-4.360000000000000269e-04
-7.770000000000000214e-04
-8.720000000000000537e-04
-8.970000000000000109e-04
-9.129999999999999661e-04
-9.089999999999999773e-04
-9.150000000000000147e-04
-9.129999999999999661e-04
-9.150000000000000147e-04
-9.150000000000000147e-04
-9.150000000000000147e-04
-9.120000000000000502e-04
-9.100000000000000016e-04
-9.150000000000000147e-04
-9.129999999999999661e-04
-9.079999999999999530e-04
-9.089999999999999773e-04
-2.869999999999999830e-04
2.939999999999999905e-04
4.249999999999999763e-04
1.420000000000000092e-04
-3.000000000000000076e-05
9.699999999999999963e-05
2.110000000000000059e-04
3.049999999999999868e-04
3.899999999999999929e-04
5.370000000000000424e-04
3.950000000000000061e-04
-4.000000000000000327e-05
-4.130000000000000099e-04
-4.249999999999999763e-04
-5.739999999999999660e-04
-2.880000000000000073e-04
-1.099999999999999971e-05
2.390000000000000089e-04
1.689999999999999879e-04
1.359999999999999989e-04
4.319999999999999838e-04
7.519999999999999558e-04
1.007000000000000083e-03
1.260999999999999968e-03
9.039999999999999642e-04
3.040000000000000167e-04
1.990000000000000124e-04
3.390000000000000001e-04
1.110000000000000011e-04
-7.399999999999999623e-05
-4.260000000000000006e-04
-7.720000000000000083e-04
-8.760000000000000425e-04
-8.949999999999999623e-04
-7.039999999999999817e-04
-4.470000000000000232e-04
-6.019999999999999961e-04
-3.469999999999999777e-04
2.799999999999999755e-04
-8.899999999999999491e-05
-7.010000000000000172e-04
-8.599999999999999789e-04
-8.980000000000000352e-04
-9.110000000000000259e-04
-9.120000000000000502e-04
-9.110000000000000259e-04
-9.139999999999999904e-04
-8.310000000000000329e-04
-9.000000000000000567e-05
6.040000000000000447e-04
9.430000000000000448e-04
1.061000000000000094e-03
1.252999999999999991e-03
1.363000000000000062e-03
1.585000000000000037e-03
1.585000000000000037e-03
1.585000000000000037e-03
1.585000000000000037e-03
1.585000000000000037e-03
1.585000000000000037e-03
1.585000000000000037e-03
1.585000000000000037e-03
1.526000000000000013e-03
1.221000000000000080e-03
9.929999999999999591e-04
4.049999999999999781e-04
-1.869999999999999917e-04
-7.039999999999999817e-04
-8.549999999999999658e-04
-9.020000000000000240e-04
-9.070000000000000371e-04
-9.100000000000000016e-04
-9.100000000000000016e-04
-9.110000000000000259e-04
-9.150000000000000147e-04
-6.970000000000000284e-04
-6.139999999999999625e-04
-5.619999999999999996e-04
3.690000000000000246e-04
1.183000000000000024e-03
1.585000000000000037e-03
1.585000000000000037e-03
1.585000000000000037e-03
1.533999999999999990e-03
1.585000000000000037e-03
1.585000000000000037e-03
1.585000000000000037e-03
1.209999999999999921e-03
8.760000000000000425e-04
8.379999999999999862e-04
8.069999999999999916e-04
6.939999999999999555e-04
8.360000000000000460e-04
9.499999999999999981e-04
6.250000000000000130e-04
2.579999999999999828e-04
2.169999999999999891e-04
4.290000000000000193e-04
6.329999999999999906e-04
2.079999999999999872e-04
-2.010000000000000068e-04
-2.990000000000000036e-04
-4.800000000000000122e-04
-3.469999999999999777e-04
-2.700000000000000035e-04
-4.800000000000000122e-05
3.899999999999999929e-04
2.460000000000000164e-04
2.300000000000000002e-05
1.119999999999999983e-04
6.019999999999999961e-04
9.929999999999999591e-04
7.720000000000000083e-04
1.019999999999999992e-04
-6.369999999999999794e-04
-8.390000000000000105e-04
-8.880000000000000089e-04
-9.049999999999999885e-04
-9.079999999999999530e-04
-9.150000000000000147e-04
-7.910000000000000364e-04
-9.899999999999999404e-05
8.549999999999999658e-04
1.538000000000000088e-03
1.433000000000000029e-03
1.118999999999999986e-03
1.159000000000000091e-03
8.260000000000000198e-04
4.339999999999999782e-04
3.269999999999999795e-04
6.600000000000000506e-05
-2.649999999999999903e-04
-3.159999999999999832e-04
-1.010000000000000020e-04
-3.199999999999999855e-05
-4.029999999999999837e-04
-7.339999999999999520e-04
-8.559999999999999901e-04
-8.959999999999999866e-04
-9.129999999999999661e-04
-9.100000000000000016e-04
-9.100000000000000016e-04
-9.129999999999999661e-04
-9.120000000000000502e-04
-9.129999999999999661e-04
-9.150000000000000147e-04
-9.150000000000000147e-04
-9.150000000000000147e-04
-9.139999999999999904e-04
-9.129999999999999661e-04
-9.049999999999999885e-04
-4.550000000000000008e-04
-5.879999999999999810e-04
-8.279999999999999600e-04
-8.899999999999999491e-04
-9.079999999999999530e-04
-4.470000000000000232e-04
-1.410000000000000120e-04
-5.410000000000000312e-04
-7.420000000000000380e-04
-7.950000000000000252e-04
-6.800000000000000488e-04
-2.420000000000000005e-04
1.499999999999999869e-04
1.230000000000000082e-04
-1.990000000000000124e-04
-3.089999999999999756e-04
-2.390000000000000089e-04
5.000000000000000240e-05
5.649999999999999641e-04
1.209999999999999921e-03
1.410000000000000012e-03
1.456999999999999962e-03
1.280000000000000105e-03
1.394999999999999973e-03
1.409000000000000096e-03
1.136000000000000074e-03
5.910000000000000539e-04
1.420000000000000092e-04
-2.280000000000000126e-04
-3.919999999999999873e-04
-5.000000000000000104e-04
-5.060000000000000478e-04
-6.669999999999999497e-04
-8.149999999999999693e-04
-8.800000000000000313e-04
-9.039999999999999642e-04
-9.060000000000000128e-04
-8.030000000000000028e-04
-1.019999999999999992e-04
5.320000000000000293e-04
7.349999999999999763e-04
6.800000000000000488e-04
3.739999999999999835e-04
3.589999999999999984e-04
4.870000000000000197e-04
8.499999999999999526e-04
1.420999999999999954e-03
1.585000000000000037e-03
1.585000000000000037e-03
1.585000000000000037e-03
1.585000000000000037e-03
1.585000000000000037e-03
1.585000000000000037e-03
1.585000000000000037e-03
1.263999999999999933e-03
1.482000000000000027e-03
1.252999999999999991e-03
6.380000000000000037e-04
6.300000000000000261e-04
8.480000000000000124e-04
5.630000000000000239e-04
-1.350000000000000017e-04
-6.849999999999999535e-04
-6.999999999999999929e-04
-6.340000000000000149e-04
-7.969999999999999654e-04
-4.580000000000000195e-04
-3.669999999999999760e-04
-7.489999999999999913e-04
-8.670000000000000406e-04
-9.039999999999999642e-04
-8.009999999999999542e-04
-8.260000000000000198e-04
-8.869999999999999846e-04
-9.089999999999999773e-04
-9.120000000000000502e-04
-6.980000000000000527e-04
-4.519999999999999821e-04
-7.470000000000000511e-04
-8.710000000000000294e-04
-8.069999999999999916e-04
-8.620000000000000275e-04
-8.800000000000000313e-04
-6.409999999999999682e-04
-5.710000000000000015e-04
-7.609999999999999577e-04
-8.750000000000000182e-04
-9.049999999999999885e-04
-9.110000000000000259e-04
-9.079999999999999530e-04
-2.539999999999999940e-04
7.079999999999999705e-04
1.502999999999999996e-03
1.585000000000000037e-03
1.585000000000000037e-03
1.585000000000000037e-03
1.585000000000000037e-03
1.585000000000000037e-03
1.585000000000000037e-03
1.585000000000000037e-03
1.525000000000000097e-03
1.185999999999999988e-03
1.291000000000000047e-03
1.585000000000000037e-03
1.492999999999999969e-03
9.940000000000000918e-04
8.649999999999999920e-04
1.131000000000000061e-03
1.374000000000000004e-03
1.469999999999999953e-03
1.389999999999999960e-03
1.100999999999999982e-03
7.770000000000000214e-04
5.569999999999999864e-04
2.460000000000000164e-04
-1.890000000000000133e-04
-1.979999999999999881e-04
-4.580000000000000195e-04
-7.730000000000000326e-04
-8.720000000000000537e-04
-9.030000000000000483e-04
-9.129999999999999661e-04
-9.129999999999999661e-04
-9.129999999999999661e-04
-9.150000000000000147e-04
-9.150000000000000147e-04
-9.139999999999999904e-04
-9.089999999999999773e-04
-9.150000000000000147e-04
-8.480000000000000124e-04
-5.879999999999999810e-04
-6.989999999999999686e-04
-5.320000000000000293e-04
-1.289999999999999914e-04
1.210000000000000002e-04
7.600000000000000418e-05
-2.169999999999999891e-04
-6.679999999999999740e-04
-8.030000000000000028e-04
-7.950000000000000252e-04
-6.610000000000000207e-04
-5.730000000000000501e-04
-6.179999999999999513e-04
-4.629999999999999784e-04
-6.509999999999999945e-04
-8.450000000000000479e-04
-7.489999999999999913e-04
-4.960000000000000216e-04
-4.100000000000000047e-05
2.689999999999999791e-04
6.750000000000000357e-04
9.330000000000000186e-04
7.380000000000000492e-04
3.570000000000000040e-04
1.379999999999999933e-04
2.959999999999999849e-04
4.279999999999999950e-04
2.990000000000000036e-04
3.240000000000000150e-04
3.029999999999999924e-04
5.399999999999999798e-05
-1.679999999999999907e-04
-3.469999999999999777e-04
-4.299999999999999894e-04
-3.800000000000000209e-04
-2.500000000000000052e-04
-1.269999999999999970e-04
4.500000000000000283e-05
4.070000000000000267e-04
7.820000000000000345e-04
8.710000000000000294e-04
4.530000000000000064e-04
-4.079999999999999968e-04
-7.829999999999999504e-04
-8.779999999999999827e-04
-9.049999999999999885e-04
-9.089999999999999773e-04
-9.110000000000000259e-04
-9.120000000000000502e-04
-9.150000000000000147e-04
-9.110000000000000259e-04
-3.699999999999999947e-04
2.779999999999999811e-04
1.044999999999999922e-03
1.585000000000000037e-03
1.585000000000000037e-03
1.585000000000000037e-03
1.585000000000000037e-03
1.585000000000000037e-03
1.585000000000000037e-03
1.585000000000000037e-03
1.585000000000000037e-03
1.585000000000000037e-03
1.585000000000000037e-03
1.585000000000000037e-03
1.585000000000000037e-03
1.245999999999999929e-03
1.072000000000000036e-03
4.670000000000000214e-04
3.620000000000000171e-04
2.079999999999999872e-04
-4.380000000000000213e-04
-7.839999999999999747e-04
-8.720000000000000537e-04
-8.989999999999999511e-04
-9.100000000000000016e-04
-9.110000000000000259e-04
-9.120000000000000502e-04
-9.139999999999999904e-04
-9.120000000000000502e-04
-9.100000000000000016e-04
-9.089999999999999773e-04
-9.150000000000000147e-04
-9.129999999999999661e-04
-9.110000000000000259e-04
-9.150000000000000147e-04
-9.110000000000000259e-04
-9.150000000000000147e-04
-4.929999999999999487e-04
4.369999999999999970e-04
1.296999999999999976e-03
1.585000000000000037e-03
1.585000000000000037e-03
1.585000000000000037e-03
1.585000000000000037e-03
1.585000000000000037e-03
1.446999999999999936e-03
1.033999999999999980e-03
9.340000000000000429e-04
7.259999999999999743e-04
2.979999999999999793e-04
-1.920000000000000049e-04
-5.130000000000000011e-04
-7.770000000000000214e-04
-8.739999999999999939e-04
-8.989999999999999511e-04
-3.669999999999999760e-04
8.000000000000000654e-05
8.130000000000000291e-04
1.371000000000000040e-03
1.585000000000000037e-03
1.585000000000000037e-03
1.549999999999999946e-03
1.244000000000000097e-03
9.700000000000000505e-04
8.180000000000000422e-04
1.072999999999999952e-03
9.799999999999999684e-04
2.390000000000000089e-04
-5.699999999999999772e-04
-8.080000000000000160e-04
-8.800000000000000313e-04
-9.039999999999999642e-04
-9.110000000000000259e-04
-9.129999999999999661e-04
-9.110000000000000259e-04
-9.070000000000000371e-04
-9.100000000000000016e-04
-8.670000000000000406e-04
-5.429999999999999714e-04
-1.500000000000000038e-05
-1.559999999999999972e-04
-6.089999999999999494e-04
-8.180000000000000422e-04
-8.890000000000000333e-04
-9.089999999999999773e-04
-9.129999999999999661e-04
-9.139999999999999904e-04
-9.129999999999999661e-04
-9.150000000000000147e-04
-9.129999999999999661e-04
-7.240000000000000342e-04
-3.939999999999999817e-04
6.999999999999999895e-06
3.699999999999999811e-05
9.699999999999999963e-05
3.809999999999999910e-04
7.060000000000000303e-04
1.229999999999999974e-03
1.454999999999999913e-03
1.585000000000000037e-03
1.322999999999999957e-03
7.969999999999999654e-04
4.240000000000000062e-04
2.519999999999999996e-04
3.220000000000000206e-04
4.719999999999999803e-04
6.390000000000000280e-04
7.399999999999999894e-04
8.620000000000000275e-04
8.899999999999999491e-04
9.890000000000000787e-04
8.580000000000000387e-04
4.299999999999999894e-04
1.910000000000000077e-04
7.799999999999999859e-05
9.200000000000000007e-05
4.260000000000000006e-04
5.980000000000000072e-04
5.730000000000000501e-04
6.229999999999999644e-04
8.919999999999999978e-04
1.337999999999999997e-03
1.585000000000000037e-03
1.585000000000000037e-03
1.466000000000000072e-03
9.430000000000000448e-04
8.819999999999999715e-04
8.649999999999999920e-04
5.000000000000000104e-04
1.110000000000000011e-04
-2.700000000000000035e-04
-4.699999999999999859e-04
-2.559999999999999884e-04
1.520000000000000084e-04
-1.079999999999999960e-04
-3.800000000000000209e-04
-6.319999999999999663e-04
-8.369999999999999619e-04
-8.919999999999999978e-04
-9.049999999999999885e-04
-9.150000000000000147e-04
-9.100000000000000016e-04
-8.859999999999999603e-04
-6.089999999999999494e-04
-3.040000000000000167e-04
-2.930000000000000204e-04
-3.009999999999999980e-04
-3.179999999999999776e-04
-3.680000000000000003e-04
-3.800000000000000209e-04
1.200000000000000030e-05
9.269999999999999811e-04
1.585000000000000037e-03
1.585000000000000037e-03
1.585000000000000037e-03
1.585000000000000037e-03
1.585000000000000037e-03
1.585000000000000037e-03
1.585000000000000037e-03
1.371999999999999956e-03
1.165999999999999936e-03
1.227999999999999925e-03
1.206000000000000041e-03
1.284999999999999901e-03
1.271999999999999910e-03
1.118999999999999986e-03
1.048000000000000103e-03
5.749999999999999903e-04
3.609999999999999928e-04
9.000000000000000567e-05
-3.600000000000000091e-05
-1.179999999999999951e-04
-1.000000000000000082e-05
1.090000000000000067e-04
2.660000000000000146e-04
2.939999999999999905e-04
6.499999999999999431e-05
-1.320000000000000101e-04
-3.759999999999999779e-04
-6.700000000000000226e-04
-8.450000000000000479e-04
-7.399999999999999894e-04
-8.369999999999999619e-04
-8.919999999999999978e-04
-7.950000000000000252e-04
-8.080000000000000160e-04
-8.850000000000000444e-04
-9.070000000000000371e-04
-7.839999999999999747e-04
-5.839999999999999922e-04
-3.770000000000000022e-04
-4.899999999999999842e-04
-5.000000000000000104e-04
-3.480000000000000020e-04
-3.170000000000000075e-04
-5.050000000000000235e-04
-7.230000000000000098e-04
-7.669999999999999951e-04
-4.929999999999999487e-04
-2.000000000000000096e-04
4.399999999999999886e-05
3.499999999999999693e-05
-9.899999999999999404e-05
2.199999999999999943e-05
9.699999999999999963e-05
3.699999999999999947e-04
7.380000000000000492e-04
9.629999999999999888e-04
1.113000000000000057e-03
9.240000000000000166e-04
6.769999999999999759e-04
3.640000000000000115e-04
6.000000000000000152e-05
-8.700000000000000051e-05
-1.840000000000000001e-04
-7.399999999999999623e-05
-1.200000000000000030e-05
-1.710000000000000094e-04
-4.939999999999999730e-04
-8.000000000000000383e-04
-8.809999999999999472e-04
-9.030000000000000483e-04
-9.100000000000000016e-04
-9.110000000000000259e-04
-9.089999999999999773e-04
-9.110000000000000259e-04
-9.120000000000000502e-04
-7.799999999999999859e-04
-5.410000000000000312e-04
-4.249999999999999763e-04
-4.319999999999999838e-04
-4.110000000000000155e-04
-2.730000000000000222e-04
-3.229999999999999907e-04
-4.049999999999999781e-04
-5.760000000000000146e-04
-5.079999999999999880e-04
-4.749999999999999990e-04
-4.800000000000000122e-04
-3.930000000000000117e-04
-2.869999999999999830e-04
-2.640000000000000202e-04
-4.560000000000000251e-04
-7.429999999999999539e-04
-7.720000000000000083e-04
-6.710000000000000469e-04
-5.109999999999999525e-04
-4.499999999999999877e-04
-4.789999999999999879e-04
-4.420000000000000101e-04
-3.379999999999999758e-04
-1.900000000000000105e-04
3.600000000000000091e-05
5.940000000000000184e-04
7.709999999999999840e-04
3.849999999999999798e-04
2.190000000000000106e-04
1.359999999999999989e-04
2.990000000000000036e-04
7.630000000000000063e-04
1.196000000000000014e-03
1.276999999999999923e-03
1.177000000000000095e-03
9.600000000000000243e-04
8.130000000000000291e-04
6.719999999999999628e-04
7.470000000000000511e-04
8.829999999999999958e-04
8.580000000000000387e-04
8.180000000000000422e-04
6.939999999999999555e-04
5.010000000000000347e-04
5.370000000000000424e-04
8.149999999999999693e-04
1.036999999999999944e-03
1.152999999999999945e-03
1.149999999999999981e-03
1.049999999999999935e-03
8.790000000000000070e-04
9.920000000000000432e-04
9.890000000000000787e-04
8.869999999999999846e-04
8.549999999999999658e-04
6.109999999999999980e-04
3.750000000000000078e-04
2.210000000000000050e-04
3.680000000000000003e-04
4.180000000000000230e-04
3.429999999999999889e-04
4.090000000000000211e-04
5.069999999999999637e-04
4.769999999999999934e-04
3.499999999999999964e-04
3.099999999999999999e-04
2.090000000000000115e-04
1.510000000000000112e-04
2.300000000000000070e-04
2.069999999999999900e-04
2.249999999999999938e-04
1.169999999999999979e-04
3.100000000000000135e-05
6.999999999999999895e-06
1.699999999999999987e-05
-1.679999999999999907e-04
-4.350000000000000026e-04
-4.229999999999999819e-04
-3.519999999999999908e-04
-6.179999999999999513e-04
-8.319999999999999488e-04
-8.890000000000000333e-04
-8.369999999999999619e-04
-6.040000000000000447e-04
-3.519999999999999908e-04
-2.779999999999999811e-04
-2.849999999999999886e-04
-3.339999999999999870e-04
-4.429999999999999802e-04
-6.430000000000000169e-04
-5.599999999999999509e-04
-1.219999999999999974e-04
2.149999999999999947e-04
3.860000000000000041e-04
6.250000000000000130e-04
7.439999999999999782e-04
7.649999999999999465e-04
6.989999999999999686e-04
6.539999999999999590e-04
7.450000000000000025e-04
6.220000000000000485e-04
4.079999999999999968e-04
3.220000000000000206e-04
3.040000000000000167e-04
2.159999999999999919e-04
1.410000000000000120e-04
1.599999999999999928e-05
-1.410000000000000120e-04
-2.410000000000000033e-04
-3.249999999999999851e-04
-3.789999999999999966e-04
-3.579999999999999741e-04
-3.899999999999999929e-04
-6.170000000000000354e-04
-6.520000000000000188e-04
-6.819999999999999890e-04
-7.510000000000000399e-04
-8.630000000000000518e-04
-8.959999999999999866e-04
-9.079999999999999530e-04
-8.630000000000000518e-04
-8.239999999999999712e-04
-8.899999999999999491e-04
-9.049999999999999885e-04
-6.380000000000000037e-04
-3.620000000000000171e-04
-3.640000000000000115e-04
-4.350000000000000026e-04
-3.190000000000000019e-04
-2.190000000000000106e-04
-2.590000000000000071e-04
-3.620000000000000171e-04
-3.089999999999999756e-04
-1.679999999999999907e-04
-1.499999999999999869e-04
-1.310000000000000129e-04
-1.500000000000000038e-05
2.210000000000000050e-04
3.440000000000000132e-04
3.190000000000000019e-04
9.500000000000000523e-05
-1.600000000000000131e-04
-6.999999999999999387e-05
-7.100000000000000462e-05
-2.979999999999999793e-04
-3.849999999999999798e-04
-4.159999999999999744e-04
-4.659999999999999971e-04
-3.809999999999999910e-04
-3.530000000000000152e-04
-2.999999999999999737e-04
-2.069999999999999900e-04
-3.999999999999999819e-06
3.190000000000000019e-04
3.600000000000000227e-04
2.640000000000000202e-04
2.809999999999999998e-04
3.480000000000000020e-04
3.539999999999999853e-04
2.190000000000000106e-04
2.349999999999999930e-04
3.319999999999999926e-04
4.220000000000000118e-04
3.690000000000000246e-04
2.130000000000000003e-04
2.100000000000000087e-04
3.069999999999999812e-04
3.640000000000000115e-04
3.719999999999999891e-04
1.649999999999999991e-04
-2.239999999999999966e-04
-2.759999999999999867e-04
-4.659999999999999971e-04
-6.700000000000000226e-04
-8.369999999999999619e-04
-6.759999999999999516e-04
-4.279999999999999950e-04
-3.989999999999999949e-04
-4.009999999999999893e-04
-3.519999999999999908e-04
-4.110000000000000155e-04
-4.769999999999999934e-04
-4.550000000000000008e-04
-2.700000000000000035e-04
-1.550000000000000000e-04
-1.079999999999999960e-04
-9.799999999999999684e-05
-4.300000000000000165e-05
8.100000000000000375e-05
3.240000000000000150e-04
5.039999999999999992e-04
5.169999999999999899e-04
5.249999999999999676e-04
5.259999999999999919e-04
5.950000000000000427e-04
7.100000000000000191e-04
6.809999999999999647e-04
7.330000000000000361e-04
7.410000000000000137e-04
6.009999999999999717e-04
4.989999999999999861e-04
4.040000000000000080e-04
2.320000000000000014e-04
1.469999999999999953e-04
1.200000000000000030e-04
-8.899999999999999491e-05
-2.039999999999999984e-04
-2.420000000000000005e-04
-1.900000000000000105e-04
-3.959999999999999762e-04
-1.740000000000000010e-04
3.879999999999999985e-04
8.509999999999999769e-04
8.440000000000000236e-04
7.829999999999999504e-04
7.360000000000000006e-04
6.009999999999999717e-04
6.359999999999999551e-04
4.479999999999999933e-04
4.099999999999999912e-04
4.180000000000000230e-04
1.340000000000000045e-04
1.699999999999999987e-05
-1.099999999999999971e-05
-8.799999999999999771e-05
-1.820000000000000057e-04
-3.579999999999999741e-04
-4.420000000000000101e-04
-6.509999999999999945e-04
-8.409999999999999507e-04
-6.740000000000000114e-04
-5.220000000000000031e-04
-5.869999999999999567e-04
-8.120000000000000048e-04
-8.829999999999999958e-04
-9.049999999999999885e-04
-8.059999999999999673e-04
-7.079999999999999705e-04
-6.210000000000000242e-04
-6.220000000000000485e-04
-5.739999999999999660e-04
-3.150000000000000131e-04
1.000000000000000048e-04
4.020000000000000136e-04
5.500000000000000331e-04
4.949999999999999973e-04
2.429999999999999977e-04
2.200000000000000078e-04
3.759999999999999779e-04
2.249999999999999938e-04
3.399999999999999973e-05
-1.140000000000000063e-04
-2.039999999999999984e-04
-2.400000000000000061e-04
-3.319999999999999926e-04
-4.800000000000000122e-04
-6.710000000000000469e-04
-8.400000000000000348e-04
-8.890000000000000333e-04
-9.100000000000000016e-04
-9.100000000000000016e-04
-9.120000000000000502e-04
-9.079999999999999530e-04
-9.129999999999999661e-04
-9.129999999999999661e-04
-9.139999999999999904e-04
-7.280000000000000230e-04
-5.569999999999999864e-04
-3.579999999999999741e-04
-2.149999999999999947e-04
-1.689999999999999879e-04
0.000000000000000000e+00
1.900000000000000105e-04
3.420000000000000188e-04
5.310000000000000050e-04
8.069999999999999916e-04
1.075000000000000001e-03
1.283000000000000069e-03
1.438000000000000042e-03
1.487999999999999956e-03
1.296000000000000060e-03
1.062000000000000010e-03
8.859999999999999603e-04
7.050000000000000060e-04
5.479999999999999845e-04
3.869999999999999742e-04
2.460000000000000164e-04
1.210000000000000002e-04
7.999999999999999638e-06
-1.029999999999999964e-04
-2.469999999999999865e-04
-4.189999999999999931e-04
-5.190000000000000386e-04
-5.649999999999999641e-04
-5.869999999999999567e-04
-5.540000000000000219e-04
-5.190000000000000386e-04
-4.719999999999999803e-04
-4.169999999999999987e-04
-4.400000000000000157e-04
-4.369999999999999970e-04
-1.479999999999999925e-04
1.420000000000000092e-04
3.119999999999999944e-04
3.939999999999999817e-04
4.539999999999999765e-04
5.150000000000000498e-04
5.699999999999999772e-04
6.250000000000000130e-04
5.810000000000000277e-04
5.050000000000000235e-04
4.479999999999999933e-04
3.899999999999999929e-04
4.180000000000000230e-04
3.559999999999999797e-04
2.190000000000000106e-04
1.599999999999999928e-05
-5.599999999999999916e-05
-4.899999999999999842e-05
-1.550000000000000000e-04
-3.319999999999999926e-04
-4.809999999999999823e-04
-5.559999999999999621e-04
-6.570000000000000319e-04
-7.829999999999999504e-04
-8.409999999999999507e-04
-8.809999999999999472e-04
-9.070000000000000371e-04
-9.110000000000000259e-04
-8.379999999999999862e-04
-6.369999999999999794e-04
-3.699999999999999947e-04
-2.169999999999999891e-04
-3.600000000000000091e-05
2.130000000000000003e-04
3.759999999999999779e-04
4.400000000000000157e-04
4.060000000000000024e-04
3.699999999999999947e-04
3.570000000000000040e-04
3.280000000000000038e-04
2.079999999999999872e-04
1.530000000000000056e-04
1.749999999999999982e-04
2.110000000000000059e-04
3.510000000000000208e-04
1.700000000000000122e-04
-0.000000000000000000e+00
-4.699999999999999724e-05
-1.389999999999999905e-04
-1.849999999999999973e-04
-2.290000000000000098e-04
-3.499999999999999964e-04
-5.069999999999999637e-04
-5.950000000000000427e-04
-5.659999999999999884e-04
-5.829999999999999679e-04
-6.179999999999999513e-04
-5.980000000000000072e-04
-4.859999999999999954e-04
-3.660000000000000059e-04
-2.640000000000000202e-04
-1.649999999999999991e-04
1.269999999999999970e-04
3.989999999999999949e-04
5.400000000000000069e-04
6.260000000000000373e-04
5.580000000000000107e-04
4.130000000000000099e-04
3.480000000000000020e-04
3.159999999999999832e-04
2.079999999999999872e-04
1.350000000000000017e-04
7.299999999999999903e-05
7.999999999999999638e-06
-7.700000000000000139e-05
-2.110000000000000059e-04
-3.080000000000000055e-04
-2.030000000000000012e-04
-3.800000000000000209e-05
-8.299999999999999815e-05
-1.900000000000000105e-04
-3.339999999999999870e-04
-4.899999999999999842e-04
-6.040000000000000447e-04
-6.099999999999999737e-04
-6.009999999999999717e-04
-4.929999999999999487e-04
-3.089999999999999756e-04
-1.890000000000000133e-04
-1.200000000000000030e-04
-5.000000000000000240e-05
-5.099999999999999960e-05
-7.100000000000000462e-05
-7.499999999999999343e-05
-2.799999999999999958e-05
4.100000000000000047e-05
3.999999999999999819e-06
-7.600000000000000418e-05
-2.799999999999999958e-05
4.300000000000000165e-05
9.000000000000000228e-06
0.000000000000000000e+00
3.899999999999999929e-05
-5.000000000000000409e-06
-9.000000000000000228e-06
-4.000000000000000327e-05
-3.300000000000000253e-05
-2.400000000000000061e-05
-1.900000000000000105e-05
-1.200000000000000030e-04
-2.719999999999999979e-04
-2.979999999999999793e-04
-2.869999999999999830e-04
-3.800000000000000209e-04
-4.989999999999999861e-04
-6.019999999999999961e-04
-6.089999999999999494e-04
-5.320000000000000293e-04
-3.770000000000000022e-04
-1.769999999999999926e-04
-4.399999999999999886e-05
4.600000000000000004e-05
1.379999999999999933e-04
2.860000000000000129e-04
4.760000000000000234e-04
5.389999999999999826e-04
4.929999999999999487e-04
4.139999999999999800e-04
3.579999999999999741e-04
3.359999999999999814e-04
2.730000000000000222e-04
1.939999999999999993e-04
1.569999999999999944e-04
1.330000000000000073e-04
8.600000000000000331e-05
-2.199999999999999943e-05
-1.330000000000000073e-04
-2.489999999999999809e-04
-3.840000000000000097e-04
-5.220000000000000031e-04
-6.459999999999999814e-04
-7.720000000000000083e-04
-8.019999999999999785e-04
-8.750000000000000182e-04
-9.020000000000000240e-04
-8.499999999999999526e-04
-7.640000000000000306e-04
-6.499999999999999702e-04
-5.349999999999999938e-04
-3.370000000000000057e-04
-8.100000000000000375e-05
1.310000000000000129e-04
2.709999999999999735e-04
3.379999999999999758e-04
4.459999999999999989e-04
5.749999999999999903e-04
6.350000000000000392e-04
6.800000000000000488e-04
6.880000000000000265e-04
6.830000000000000134e-04
6.109999999999999980e-04
5.320000000000000293e-04
5.460000000000000443e-04
5.519999999999999733e-04
5.419999999999999471e-04
4.550000000000000008e-04
3.420000000000000188e-04
2.509999999999999753e-04
1.119999999999999983e-04
1.200000000000000030e-05
-9.799999999999999684e-05
-2.359999999999999902e-04
-3.390000000000000001e-04
-4.060000000000000024e-04
-4.369999999999999970e-04
-4.629999999999999784e-04
-4.800000000000000122e-04
-4.910000000000000085e-04
-4.820000000000000066e-04
-2.970000000000000092e-04
-1.430000000000000064e-04
-3.499999999999999693e-05
2.000000000000000164e-05
3.600000000000000091e-05
6.099999999999999872e-05
1.259999999999999998e-04
1.749999999999999982e-04
1.440000000000000036e-04
1.530000000000000056e-04
2.169999999999999891e-04
1.810000000000000085e-04
1.090000000000000067e-04
1.299999999999999886e-04
1.579999999999999916e-04
1.200000000000000030e-04
1.110000000000000011e-04
1.190000000000000058e-04
8.399999999999999535e-05
1.999999999999999909e-06
-1.979999999999999881e-04
-3.589999999999999984e-04
-5.109999999999999525e-04
-6.790000000000000245e-04
-8.059999999999999673e-04
-8.090000000000000403e-04
-8.360000000000000460e-04
-8.149999999999999693e-04
-6.229999999999999644e-04
-3.719999999999999891e-04
-1.979999999999999881e-04
-9.299999999999999727e-05
-1.299999999999999920e-05
1.160000000000000007e-04
1.939999999999999993e-04
2.530000000000000239e-04
3.319999999999999926e-04
4.119999999999999856e-04
4.060000000000000024e-04
3.930000000000000117e-04
2.970000000000000092e-04
2.320000000000000014e-04
1.620000000000000075e-04
1.090000000000000067e-04
1.740000000000000010e-04
1.720000000000000066e-04
1.600000000000000131e-04
1.079999999999999960e-04
1.269999999999999970e-04
1.500000000000000038e-05
-9.799999999999999684e-05
-1.510000000000000112e-04
-1.969999999999999909e-04
-3.299999999999999982e-04
-4.060000000000000024e-04
-4.200000000000000174e-04
-4.099999999999999912e-04
-4.350000000000000026e-04
-4.339999999999999782e-04
-3.989999999999999949e-04
-3.609999999999999928e-04
-2.730000000000000222e-04
-1.589999999999999888e-04
-7.600000000000000418e-05
-4.100000000000000047e-05
1.099999999999999971e-05
9.100000000000000287e-05
1.620000000000000075e-04
1.569999999999999944e-04
1.740000000000000010e-04
1.299999999999999886e-04
8.799999999999999771e-05
3.699999999999999811e-05
3.499999999999999693e-05
6.700000000000000226e-05
8.399999999999999535e-05
4.699999999999999724e-05
-2.699999999999999899e-05
-7.600000000000000418e-05
-1.160000000000000007e-04
-1.789999999999999870e-04
-2.640000000000000202e-04
-3.930000000000000117e-04
-4.970000000000000459e-04
-5.680000000000000370e-04
-5.699999999999999772e-04
-5.829999999999999679e-04
-6.089999999999999494e-04
-5.689999999999999529e-04
-4.659999999999999971e-04
-3.240000000000000150e-04
-1.990000000000000124e-04
-1.019999999999999992e-04
-3.199999999999999855e-05
7.200000000000000182e-05
1.910000000000000077e-04
3.040000000000000167e-04
3.480000000000000020e-04
3.690000000000000246e-04
4.009999999999999893e-04
4.330000000000000081e-04
4.569999999999999952e-04
4.719999999999999803e-04
5.540000000000000219e-04
5.779999999999999548e-04
5.150000000000000498e-04
4.420000000000000101e-04
3.640000000000000115e-04
3.040000000000000167e-04
1.990000000000000124e-04
5.599999999999999916e-05
-6.600000000000000506e-05
-1.669999999999999935e-04
-2.649999999999999903e-04
-3.009999999999999980e-04
-3.119999999999999944e-04
-3.179999999999999776e-04
-3.759999999999999779e-04
-4.609999999999999840e-04
-4.449999999999999746e-04
-2.889999999999999774e-04
-1.469999999999999953e-04
-3.300000000000000253e-05
5.800000000000000034e-05
1.430000000000000064e-04
2.000000000000000096e-04
2.530000000000000239e-04
2.919999999999999961e-04
3.170000000000000075e-04
3.420000000000000188e-04
3.559999999999999797e-04
3.539999999999999853e-04
3.260000000000000094e-04
3.200000000000000262e-04
2.950000000000000148e-04
2.660000000000000146e-04
1.959999999999999937e-04
1.469999999999999953e-04
1.379999999999999933e-04
8.000000000000000654e-05
-5.599999999999999916e-05
-2.110000000000000059e-04
-2.889999999999999774e-04
-4.139999999999999800e-04
-5.240000000000000517e-04
-5.209999999999999788e-04
-5.330000000000000536e-04
-5.289999999999999564e-04
-5.039999999999999992e-04
-4.589999999999999896e-04
-3.879999999999999985e-04
-2.509999999999999753e-04
-1.160000000000000007e-04
-1.299999999999999920e-05
6.999999999999999387e-05
1.050000000000000044e-04
1.559999999999999972e-04
2.020000000000000040e-04
2.220000000000000022e-04
1.689999999999999879e-04
1.039999999999999936e-04
6.499999999999999431e-05
5.599999999999999916e-05
8.899999999999999491e-05
1.110000000000000011e-04
8.299999999999999815e-05
9.699999999999999963e-05
1.499999999999999869e-04
1.469999999999999953e-04
9.699999999999999963e-05
2.599999999999999840e-05
-1.010000000000000020e-04
-2.530000000000000239e-04
-4.020000000000000136e-04
-5.929999999999999941e-04
-7.249999999999999500e-04
-8.499999999999999526e-04
-8.919999999999999978e-04
-9.030000000000000483e-04
-9.049999999999999885e-04
-7.339999999999999520e-04
-4.679999999999999915e-04
-7.499999999999999343e-05
2.809999999999999998e-04
4.180000000000000230e-04
4.350000000000000026e-04
4.110000000000000155e-04
3.330000000000000169e-04
2.460000000000000164e-04
1.689999999999999879e-04
1.389999999999999905e-04
1.789999999999999870e-04
2.220000000000000022e-04
3.080000000000000055e-04
3.620000000000000171e-04
3.319999999999999926e-04
2.869999999999999830e-04
2.349999999999999930e-04
9.799999999999999684e-05
1.119999999999999983e-04
6.200000000000000270e-05
-5.399999999999999798e-05
-2.469999999999999865e-04
-3.950000000000000061e-04
-4.910000000000000085e-04
-5.490000000000000088e-04
-5.689999999999999529e-04
-5.990000000000000316e-04
-5.460000000000000443e-04
-4.389999999999999914e-04
-3.750000000000000078e-04
-2.939999999999999905e-04
-2.090000000000000115e-04
-1.369999999999999961e-04
-8.100000000000000375e-05
-3.000000000000000076e-06
4.199999999999999768e-05
5.000000000000000240e-05
1.179999999999999951e-04
1.859999999999999945e-04
1.569999999999999944e-04
1.310000000000000129e-04
2.059999999999999928e-04
2.649999999999999903e-04
2.469999999999999865e-04
2.079999999999999872e-04
1.090000000000000067e-04
3.399999999999999973e-05
2.799999999999999958e-05
-6.000000000000000152e-06
-1.019999999999999992e-04
-2.300000000000000070e-04
-2.979999999999999793e-04
-3.579999999999999741e-04
-4.459999999999999989e-04
-5.400000000000000069e-04
-6.170000000000000354e-04
-6.419999999999999925e-04
-6.300000000000000261e-04
-5.469999999999999602e-04
-4.090000000000000211e-04
-2.610000000000000015e-04
-1.440000000000000036e-04
-4.100000000000000047e-05
4.300000000000000165e-05
9.100000000000000287e-05
8.299999999999999815e-05
5.399999999999999798e-05
7.799999999999999859e-05
1.369999999999999961e-04
1.679999999999999907e-04
1.949999999999999965e-04
2.149999999999999947e-04
2.680000000000000090e-04
3.009999999999999980e-04
2.519999999999999996e-04
1.669999999999999935e-04
9.200000000000000007e-05
2.400000000000000061e-05
-4.399999999999999886e-05
-1.600000000000000131e-04
-2.200000000000000078e-04
-2.530000000000000239e-04
-3.110000000000000243e-04
-3.649999999999999816e-04
-4.640000000000000027e-04
-5.839999999999999922e-04
-6.679999999999999740e-04
-6.650000000000000095e-04
-5.590000000000000351e-04
-4.290000000000000193e-04
-2.840000000000000185e-04
-1.589999999999999888e-04
-3.300000000000000253e-05
8.000000000000000654e-05
1.340000000000000045e-04
1.499999999999999869e-04
1.810000000000000085e-04
2.039999999999999984e-04
2.460000000000000164e-04
2.570000000000000127e-04
2.130000000000000003e-04
1.430000000000000064e-04
1.489999999999999897e-04
2.059999999999999928e-04
2.130000000000000003e-04
1.740000000000000010e-04
1.359999999999999989e-04
9.399999999999999448e-05
3.999999999999999819e-06
-8.500000000000000611e-05
-1.910000000000000077e-04
-3.249999999999999851e-04
-4.600000000000000139e-04
-6.009999999999999717e-04
-6.520000000000000188e-04
-7.020000000000000415e-04
-7.759999999999999971e-04
-7.940000000000000009e-04
-7.209999999999999612e-04
-6.120000000000000223e-04
-4.569999999999999952e-04
-2.669999999999999847e-04
-9.500000000000000523e-05
-0.000000000000000000e+00
2.000000000000000164e-05
4.000000000000000327e-05
5.399999999999999798e-05
8.600000000000000331e-05
8.500000000000000611e-05
1.219999999999999974e-04
1.579999999999999916e-04
1.420000000000000092e-04
1.740000000000000010e-04
1.930000000000000021e-04
2.190000000000000106e-04
2.320000000000000014e-04
2.429999999999999977e-04
2.110000000000000059e-04
1.869999999999999917e-04
1.230000000000000082e-04
5.500000000000000196e-05
-7.399999999999999623e-05
-2.069999999999999900e-04
-2.939999999999999905e-04
-3.229999999999999907e-04
-3.730000000000000134e-04
-4.659999999999999971e-04
-4.530000000000000064e-04
-3.660000000000000059e-04
-2.239999999999999966e-04
-5.000000000000000240e-05
7.899999999999999579e-05
1.669999999999999935e-04
2.410000000000000033e-04
2.640000000000000202e-04
3.179999999999999776e-04
3.669999999999999760e-04
4.229999999999999819e-04
4.589999999999999896e-04
4.769999999999999934e-04
4.150000000000000043e-04
3.060000000000000111e-04
2.660000000000000146e-04
2.990000000000000036e-04
3.110000000000000243e-04
2.880000000000000073e-04
2.460000000000000164e-04
1.979999999999999881e-04
1.129999999999999955e-04
6.999999999999999895e-06
-1.240000000000000054e-04
-2.259999999999999910e-04
-3.220000000000000206e-04
-4.569999999999999952e-04
-5.469999999999999602e-04
-5.580000000000000107e-04
-5.379999999999999583e-04
-4.929999999999999487e-04
-3.699999999999999947e-04
-2.979999999999999793e-04
-2.939999999999999905e-04
-2.449999999999999921e-04
-1.550000000000000000e-04
-9.399999999999999448e-05
-4.100000000000000047e-05
2.000000000000000164e-05
-2.400000000000000061e-05
6.999999999999999895e-06
9.699999999999999963e-05
8.100000000000000375e-05
-4.100000000000000047e-05
-1.029999999999999964e-04
-2.900000000000000017e-05
1.140000000000000063e-04
1.840000000000000001e-04
2.329999999999999986e-04
3.029999999999999924e-04
3.040000000000000167e-04
2.239999999999999966e-04
6.399999999999999710e-05
-8.200000000000000095e-05
-1.019999999999999992e-04
-8.000000000000000654e-05
-1.499999999999999869e-04
-2.429999999999999977e-04
-3.629999999999999872e-04
-4.650000000000000270e-04
-3.800000000000000209e-04
-1.630000000000000047e-04
-9.799999999999999684e-05
-7.700000000000000139e-05
9.399999999999999448e-05
2.489999999999999809e-04
3.009999999999999980e-04
2.519999999999999996e-04
2.049999999999999956e-04
1.600000000000000131e-04
2.669999999999999847e-04
3.519999999999999908e-04
4.040000000000000080e-04
4.989999999999999861e-04
4.530000000000000064e-04
3.660000000000000059e-04
3.269999999999999795e-04
2.770000000000000110e-04
2.550000000000000183e-04
2.249999999999999938e-04
1.469999999999999953e-04
8.700000000000000051e-05
-1.099999999999999971e-05
-1.469999999999999953e-04
-2.700000000000000035e-04
-3.660000000000000059e-04
-4.440000000000000045e-04
-4.789999999999999879e-04
-5.069999999999999637e-04
-5.100000000000000366e-04
-4.569999999999999952e-04
-3.770000000000000022e-04
-3.080000000000000055e-04
-2.300000000000000070e-04
-1.250000000000000026e-04
-1.099999999999999971e-05
1.399999999999999979e-05
4.399999999999999886e-05
1.119999999999999983e-04
2.169999999999999891e-04
2.950000000000000148e-04
3.080000000000000055e-04
2.930000000000000204e-04
3.299999999999999982e-04
3.409999999999999945e-04
3.420000000000000188e-04
2.689999999999999791e-04
2.000000000000000096e-04
1.589999999999999888e-04
8.100000000000000375e-05
4.600000000000000004e-05
3.300000000000000253e-05
-9.699999999999999963e-05
-2.390000000000000089e-04
-3.390000000000000001e-04
-3.550000000000000096e-04
-4.060000000000000024e-04
-4.670000000000000214e-04
-5.190000000000000386e-04
-5.240000000000000517e-04
-4.749999999999999990e-04
-3.939999999999999817e-04
-3.400000000000000244e-04
-2.530000000000000239e-04
-2.020000000000000040e-04
-1.740000000000000010e-04
-1.100000000000000039e-04
-6.799999999999999946e-05
-4.399999999999999886e-05
-3.300000000000000253e-05
-1.299999999999999920e-05
1.200000000000000030e-05
6.499999999999999431e-05
2.220000000000000022e-04
2.130000000000000003e-04
1.160000000000000007e-04
1.110000000000000011e-04
6.499999999999999431e-05
-2.000000000000000164e-05
-4.600000000000000004e-05
-1.500000000000000038e-05
3.000000000000000076e-05
3.600000000000000091e-05
-1.019999999999999992e-04
-2.439999999999999949e-04
-3.409999999999999945e-04
-4.090000000000000211e-04
-4.820000000000000066e-04
-5.379999999999999583e-04
-5.820000000000000520e-04
-6.070000000000000092e-04
-5.929999999999999941e-04
-5.190000000000000386e-04
-3.449999999999999833e-04
-1.179999999999999951e-04
6.999999999999999387e-05
1.450000000000000009e-04
1.369999999999999961e-04
8.299999999999999815e-05
9.000000000000000228e-06
-1.500000000000000038e-05
8.000000000000000654e-05
1.379999999999999933e-04
1.589999999999999888e-04
8.899999999999999491e-05
1.099999999999999971e-05
-6.999999999999999895e-06
-5.300000000000000078e-05
-7.899999999999999579e-05
-8.000000000000000654e-05
-9.100000000000000287e-05
-1.679999999999999907e-04
-2.709999999999999735e-04
-3.719999999999999891e-04
-4.960000000000000216e-04
-6.239999999999999887e-04
-7.500000000000000156e-04
-7.360000000000000006e-04
-6.890000000000000508e-04
-7.230000000000000098e-04
-6.880000000000000265e-04
-5.739999999999999660e-04
-4.569999999999999952e-04
-3.640000000000000115e-04
-2.210000000000000050e-04
-6.700000000000000226e-05
-1.999999999999999909e-06
3.300000000000000253e-05
1.010000000000000020e-04
1.920000000000000049e-04
2.759999999999999867e-04
3.519999999999999908e-04
3.350000000000000113e-04
3.130000000000000187e-04
2.799999999999999755e-04
2.979999999999999793e-04
3.899999999999999929e-04
4.119999999999999856e-04
3.330000000000000169e-04
2.509999999999999753e-04
2.059999999999999928e-04
1.090000000000000067e-04
2.799999999999999958e-05
-6.499999999999999431e-05
-1.479999999999999925e-04
-2.590000000000000071e-04
-3.809999999999999910e-04
-4.609999999999999840e-04
-4.939999999999999730e-04
-5.050000000000000235e-04
-5.079999999999999880e-04
-4.240000000000000062e-04
-3.640000000000000115e-04
-2.889999999999999774e-04
-1.669999999999999935e-04
-4.600000000000000004e-05
-0.000000000000000000e+00
9.000000000000000228e-06
2.500000000000000120e-05
5.899999999999999754e-05
1.029999999999999964e-04
1.720000000000000066e-04
1.930000000000000021e-04
1.219999999999999974e-04
-1.900000000000000105e-05
6.499999999999999431e-05
3.029999999999999924e-04
3.460000000000000076e-04
3.089999999999999756e-04
2.799999999999999755e-04
2.169999999999999891e-04
1.289999999999999914e-04
4.000000000000000327e-05
-5.000000000000000240e-05
-1.469999999999999953e-04
-2.420000000000000005e-04
-3.680000000000000003e-04
-5.109999999999999525e-04
-6.480000000000000300e-04
-6.849999999999999535e-04
-6.149999999999999868e-04
-5.000000000000000104e-04
-3.719999999999999891e-04
-2.069999999999999900e-04
-5.700000000000000314e-05
3.899999999999999929e-05
1.129999999999999955e-04
7.799999999999999859e-05
5.399999999999999798e-05
8.899999999999999491e-05
1.269999999999999970e-04
1.530000000000000056e-04
1.520000000000000084e-04
1.379999999999999933e-04
6.899999999999999667e-05
6.099999999999999872e-05
9.000000000000000567e-05
7.799999999999999859e-05
2.699999999999999899e-05
-1.599999999999999928e-05
-4.199999999999999768e-05
-3.000000000000000076e-05
-1.160000000000000007e-04
-2.570000000000000127e-04
-4.090000000000000211e-04
-4.499999999999999877e-04
-4.829999999999999767e-04
-5.289999999999999564e-04
-6.179999999999999513e-04
-7.190000000000000210e-04
-7.410000000000000137e-04
-6.980000000000000527e-04
-6.489999999999999459e-04
-5.460000000000000443e-04
-3.589999999999999984e-04
-2.200000000000000078e-04
-9.299999999999999727e-05
-6.799999999999999946e-05
-5.700000000000000314e-05
2.199999999999999943e-05
7.600000000000000418e-05
6.499999999999999431e-05
6.399999999999999710e-05
1.110000000000000011e-04
1.520000000000000084e-04
1.340000000000000045e-04
1.140000000000000063e-04
1.359999999999999989e-04
1.310000000000000129e-04
1.000000000000000048e-04
9.699999999999999963e-05
9.399999999999999448e-05
-3.000000000000000076e-05
-1.540000000000000028e-04
-2.649999999999999903e-04
-3.840000000000000097e-04
-5.349999999999999938e-04
-6.589999999999999721e-04
-6.700000000000000226e-04
-6.949999999999999798e-04
-7.230000000000000098e-04
-6.260000000000000373e-04
-4.780000000000000178e-04
-3.510000000000000208e-04
-2.730000000000000222e-04
-2.149999999999999947e-04
-1.259999999999999998e-04
-7.299999999999999903e-05
-3.300000000000000253e-05
7.600000000000000418e-05
1.469999999999999953e-04
1.459999999999999981e-04
1.230000000000000082e-04
7.899999999999999579e-05
4.500000000000000283e-05
3.899999999999999929e-05
1.019999999999999992e-04
5.599999999999999916e-05
2.599999999999999840e-05
5.000000000000000240e-05
5.000000000000000240e-05
-1.299999999999999920e-05
-1.410000000000000120e-04
-3.299999999999999982e-04
-4.420000000000000101e-04
-4.290000000000000193e-04
-4.400000000000000157e-04
-5.050000000000000235e-04
-5.910000000000000539e-04
-6.449999999999999570e-04
-6.549999999999999833e-04
-5.760000000000000146e-04
-4.499999999999999877e-04
-2.970000000000000092e-04
-1.779999999999999898e-04
-1.200000000000000030e-04
-6.899999999999999667e-05
2.099999999999999884e-05
8.500000000000000611e-05
1.090000000000000067e-04
1.230000000000000082e-04
1.289999999999999914e-04
1.540000000000000028e-04
1.849999999999999973e-04
1.649999999999999991e-04
1.849999999999999973e-04
2.120000000000000031e-04
1.440000000000000036e-04
7.600000000000000418e-05
8.100000000000000375e-05
1.369999999999999961e-04
1.079999999999999960e-04
-2.699999999999999899e-05
-1.489999999999999897e-04
-2.939999999999999905e-04
-4.290000000000000193e-04
-4.970000000000000459e-04
-5.410000000000000312e-04
-5.519999999999999733e-04
-6.049999999999999606e-04
-6.319999999999999663e-04
-5.710000000000000015e-04
-5.019999999999999506e-04
-4.840000000000000010e-04
-4.240000000000000062e-04
-2.869999999999999830e-04
-1.550000000000000000e-04
-4.699999999999999724e-05
4.000000000000000327e-05
7.799999999999999859e-05
3.499999999999999693e-05
3.800000000000000209e-05
4.000000000000000327e-05
7.299999999999999903e-05
4.199999999999999768e-05
-2.400000000000000061e-05
-4.899999999999999842e-05
-9.799999999999999684e-05
-9.000000000000000567e-05
-6.499999999999999431e-05
-8.799999999999999771e-05
-1.450000000000000009e-04
-2.640000000000000202e-04
-3.150000000000000131e-04
-3.910000000000000172e-04
-5.370000000000000424e-04
-6.589999999999999721e-04
-6.780000000000000002e-04
-6.340000000000000149e-04
-6.160000000000000111e-04
-6.520000000000000188e-04
-6.409999999999999682e-04
-5.370000000000000424e-04
-4.020000000000000136e-04
-2.809999999999999998e-04
-1.600000000000000131e-04
-1.599999999999999928e-05
1.610000000000000103e-04
3.190000000000000019e-04
4.169999999999999987e-04
4.319999999999999838e-04
4.240000000000000062e-04
4.110000000000000155e-04
3.379999999999999758e-04
2.680000000000000090e-04
2.449999999999999921e-04
2.860000000000000129e-04
2.369999999999999874e-04
2.110000000000000059e-04
3.020000000000000223e-04
3.480000000000000020e-04
2.550000000000000183e-04
1.119999999999999983e-04
-1.900000000000000105e-05
-1.550000000000000000e-04
-2.570000000000000127e-04
-3.330000000000000169e-04
-3.989999999999999949e-04
-4.440000000000000045e-04
-4.749999999999999990e-04
-5.069999999999999637e-04
-5.119999999999999768e-04
-4.960000000000000216e-04
-4.130000000000000099e-04
-2.939999999999999905e-04
-1.900000000000000105e-04
-1.179999999999999951e-04
-2.300000000000000002e-05
6.299999999999999990e-05
1.330000000000000073e-04
1.420000000000000092e-04
1.219999999999999974e-04
7.299999999999999903e-05
2.799999999999999958e-05
-3.999999999999999819e-06
1.399999999999999979e-05
1.119999999999999983e-04
1.559999999999999972e-04
1.399999999999999877e-04
7.600000000000000418e-05
-3.499999999999999693e-05
-1.050000000000000044e-04
-1.740000000000000010e-04
-2.719999999999999979e-04
-3.699999999999999947e-04
-4.749999999999999990e-04
-5.929999999999999941e-04
-6.179999999999999513e-04
-6.210000000000000242e-04
-5.109999999999999525e-04
-4.060000000000000024e-04
-3.649999999999999816e-04
-4.130000000000000099e-04
-3.620000000000000171e-04
-2.449999999999999921e-04
-1.069999999999999988e-04
