Time,Amplitude
0.0,4.0
0.0006698821007502679,1.3e-05
0.0013397642015005359,-4e-06
0.0020096463022508037,-2.6e-05
0.0026795284030010718,-4.2e-05
0.00334941050375134,-5.6e-05
0.0040192926045016075,-4.7e-05
0.004689174705251876,-2.3e-05
0.0053590568060021436,-1.7e-05
0.006028938906752411,-1.4e-05
0.00669882100750268,7e-06
0.007368703108252947,1.1e-05
0.008038585209003215,-1e-05
0.008708467309753483,-2.1e-05
0.009378349410503752,-1.6e-05
0.01004823151125402,-1.2e-05
0.010718113612004287,-6e-06
0.011387995712754555,-1.5e-05
0.012057877813504822,-4.4e-05
0.012727759914255092,-6.8e-05
0.01339764201500536,-7.2e-05
0.014067524115755627,-6e-05
0.014737406216505895,-4.5e-05
0.015407288317256162,-5e-05
0.01607717041800643,-6.2e-05
0.0167470525187567,-4.4e-05
0.017416934619506965,-1.6e-05
0.018086816720257234,6e-06
0.018756698821007504,2.6e-05
0.01942658092175777,1.6e-05
0.02009646302250804,-1.4e-05
0.020766345123258305,-2.4e-05
0.021436227224008574,-2.5e-05
0.022106109324758844,-4.4e-05
0.02277599142550911,-7.7e-05
0.02344587352625938,-0.0001
0.024115755627009645,-7.7e-05
0.024785637727759914,-3.7e-05
0.025455519828510183,-5e-05
0.02612540192926045,-6.8e-05
0.02679528403001072,-2.8e-05
0.027465166130760985,-7e-06
0.028135048231511254,-3.1e-05
0.028804930332261523,-3.8e-05
0.02947481243301179,-3.9e-05
0.03014469453376206,-5.4e-05
0.030814576634512324,-4.4e-05
0.031484458735262594,-3.4e-05
0.03215434083601286,-6.2e-05
0.03282422293676313,-8.5e-05
0.0334941050375134,-7.7e-05
0.034163987138263664,-6e-05
0.03483386923901393,-5.1e-05
0.0355037513397642,-6.9e-05
0.03617363344051447,-8.8e-05
0.036843515541264735,-6.1e-05
0.03751339764201501,-2e-05
0.03818327974276527,-3e-05
0.03885316184351554,-6.4e-05
0.03952304394426581,-7.4e-05
0.04019292604501608,-8.4e-05
0.040862808145766344,-9.3e-05
0.04153269024651661,-7.1e-05
0.04220257234726688,-6.9e-05
0.04287245444801715,-0.000109
0.043542336548767414,-0.000117
0.04421221864951769,-6.6e-05
0.04488210075026795,-3e-05
0.04555198285101822,-6.8e-05
0.046221864951768485,-0.00011
0.04689174705251876,-8.5e-05
0.047561629153269024,-5.7e-05
0.04823151125401929,-7.2e-05
0.04890139335476956,-6.9e-05
0.04957127545551983,-4.9e-05
0.050241157556270094,-5.4e-05
0.05091103965702037,-6.2e-05
0.05158092175777063,-5.6e-05
0.0522508038585209,-5.7e-05
0.052920685959271165,-7.6e-05
0.05359056806002144,-0.000103
0.0542604501607717,-0.000106
0.05493033226152197,-7.6e-05
0.05560021436227224,-6e-05
0.05627009646302251,-7.8e-05
0.056939978563772774,-7.5e-05
0.05760986066452305,-4.1e-05
0.05827974276527331,-2.1e-05
0.05894962486602358,-3.1e-05
0.059619506966773844,-4.9e-05
0.06028938906752412,-6.1e-05
0.06095927116827438,-6.8e-05
0.06162915326902465,-7.5e-05
0.06229903536977492,-7.9e-05
0.06296891747052519,-8.4e-05
0.06363879957127545,-9.2e-05
0.06430868167202572,-7.8e-05
0.06497856377277599,-5e-05
0.06564844587352626,-6.8e-05
0.06631832797427653,-0.000108
0.0669882100750268,-9.6e-05
0.06765809217577706,-6e-05
0.06832797427652733,-6.2e-05
0.0689978563772776,-7.8e-05
0.06966773847802786,-6.8e-05
0.07033762057877814,-4.6e-05
0.0710075026795284,-3.4e-05
0.07167738478027867,-2.2e-05
0.07234726688102894,-3.2e-05
0.0730171489817792,-7.3e-05
0.07368703108252947,-0.000101
0.07435691318327974,-8.3e-05
0.07502679528403002,-5.4e-05
0.07569667738478028,-5.7e-05
0.07636655948553055,-6.3e-05
0.07703644158628081,-4.3e-05
0.07770632368703108,-2.2e-05
0.07837620578778134,-1.9e-05
0.07904608788853162,-2.1e-05
0.07971596998928189,-2.6e-05
0.08038585209003216,-3.7e-05
0.08105573419078242,-4.3e-05
0.08172561629153269,-4.9e-05
0.08239549839228295,-7.1e-05
0.08306538049303322,-9.4e-05
0.0837352625937835,-9.9e-05
0.08440514469453377,-7.7e-05
0.08507502679528403,-3.5e-05
0.0857449088960343,-1.5e-05
0.08641479099678456,-2.2e-05
0.08708467309753483,-1.1e-05
0.0877545551982851,1.3e-05
0.08842443729903537,8e-06
0.08909431939978564,-2.2e-05
0.0897642015005359,-4e-05
0.09043408360128617,-4.2e-05
0.09110396570203644,-6.2e-05
0.0917738478027867,-8.8e-05
0.09244372990353697,-8.9e-05
0.09311361200428725,-9e-05
0.09378349410503752,-0.000106
0.09445337620578778,-9.8e-05
0.09512325830653805,-6.1e-05
0.09579314040728831,-4.9e-05
0.09646302250803858,-6.1e-05
0.09713290460878886,-4.4e-05
0.09780278670953912,-1.3e-05
0.09847266881028939,-1.1e-05
0.09914255091103966,-3.1e-05
0.09981243301178992,-4.4e-05
0.10048231511254019,-5.2e-05
0.10115219721329045,-7e-05
0.10182207931404073,-7.8e-05
0.102491961414791,-6.4e-05
0.10316184351554127,-6.3e-05
0.10383172561629153,-8.2e-05
0.1045016077170418,-7.9e-05
0.10517148981779206,-4.9e-05
0.10584137191854233,-2.7e-05
0.10651125401929261,-2.7e-05
0.10718113612004287,-2e-05
0.10785101822079314,-1.5e-05
0.1085209003215434,-3e-05
0.10919078242229367,-3.2e-05
0.10986066452304394,-1.5e-05
0.1105305466237942,-3e-05
0.11120042872454448,-6.1e-05
0.11187031082529475,-5.6e-05
0.11254019292604502,-4.8e-05
0.11321007502679528,-7.8e-05
0.11387995712754555,-0.000102
0.11454983922829581,-6.8e-05
0.1152197213290461,-2.3e-05
0.11588960342979636,-3e-05
0.11655948553054662,-5e-05
0.11722936763129689,-4.3e-05
0.11789924973204716,-4.3e-05
0.11856913183279742,-4.8e-05
0.11923901393354769,-3.5e-05
0.11990889603429797,-3.1e-05
0.12057877813504823,-5.2e-05
0.1212486602357985,-7.1e-05
0.12191854233654877,-7.5e-05
0.12258842443729903,-7.8e-05
0.1232583065380493,-8.3e-05
0.12392818863879956,-7.4e-05
0.12459807073954984,-4.6e-05
0.1252679528403001,-2.9e-05
0.12593783494105038,-4.5e-05
0.12660771704180065,-4.7e-05
0.1272775991425509,-1.8e-05
0.1279474812433012,-9e-06
0.12861736334405144,-2.5e-05
0.12928724544480172,-3.3e-05
0.12995712754555197,-3.4e-05
0.13062700964630225,-3.7e-05
0.13129689174705253,-4.4e-05
0.13196677384780278,-4.5e-05
0.13263665594855306,-4.1e-05
0.1333065380493033,-4.5e-05
0.1339764201500536,-5.3e-05
0.13464630225080385,-3.6e-05
0.13531618435155413,-8e-06
0.1359860664523044,-2.2e-05
0.13665594855305466,-4.3e-05
0.13732583065380494,-2e-05
0.1379957127545552,4e-06
0.13866559485530547,-1e-06
0.13933547695605572,-0.0
0.140005359056806,7e-06
0.14067524115755628,8e-06
0.14134512325830653,3e-06
0.1420150053590568,-1.4e-05
0.14268488745980706,-3.6e-05
0.14335476956055734,-5.3e-05
0.1440246516613076,-6.7e-05
0.14469453376205788,-6.2e-05
0.14536441586280816,-2.9e-05
0.1460342979635584,-1.3e-05
0.1467041800643087,-2.4e-05
0.14737406216505894,-2.3e-05
0.14804394426580922,-1.7e-05
0.14871382636655947,-2.1e-05
0.14938370846730975,-1.2e-05
0.15005359056806003,3e-06
0.15072347266881028,-2e-06
0.15139335476956056,-2.3e-05
0.15206323687031081,-3.2e-05
0.1527331189710611,-3.9e-05
0.15340300107181135,-6.4e-05
0.15407288317256163,-8.2e-05
0.1547427652733119,-5.8e-05
0.15541264737406216,-1.5e-05
0.15608252947481244,-9e-06
0.1567524115755627,-2.8e-05
0.15742229367631297,-1.7e-05
0.15809217577706325,4e-06
0.1587620578778135,2e-06
0.15943193997856378,3e-06
0.16010182207931403,4e-06
0.1607717041800643,-1.7e-05
0.16144158628081456,-3.3e-05
0.16211146838156484,-2.3e-05
0.16278135048231512,-2.8e-05
0.16345123258306538,-5.6e-05
0.16412111468381566,-6.4e-05
0.1647909967845659,-3.8e-05
0.1654608788853162,-3e-06
0.16613076098606644,1e-06
0.16680064308681672,-2.3e-05
0.167470525187567,-1.9e-05
0.16814040728831725,9e-06
0.16881028938906753,8e-06
0.16948017148981778,-3e-06
0.17015005359056806,8e-06
0.17081993569131831,2e-06
0.1714898177920686,-2.8e-05
0.17215969989281887,-2.4e-05
0.17282958199356913,-4e-06
0.1734994640943194,-3.3e-05
0.17416934619506966,-8.1e-05
0.17483922829581994,-7.8e-05
0.1755091103965702,-3.8e-05
0.17617899249732047,-3.1e-05
0.17684887459807075,-5.8e-05
0.177518756698821,-6.8e-05
0.17818863879957128,-5e-05
0.17885852090032153,-1.2e-05
0.1795284030010718,2.5e-05
0.18019828510182206,1.9e-05
0.18086816720257234,-2.4e-05
0.18153804930332262,-6e-05
0.18220793140407288,-7.6e-05
0.18287781350482316,-7.5e-05
0.1835476956055734,-7.2e-05
0.1842175777063237,-9.1e-05
0.18488745980707394,-9.8e-05
0.18555734190782422,-6.1e-05
0.1862272240085745,-4.9e-05
0.18689710610932475,-7.5e-05
0.18756698821007503,-5.6e-05
0.18823687031082528,-9e-06
0.18890675241157556,-1.2e-05
0.18957663451232584,-2.7e-05
0.1902465166130761,-1.3e-05
0.19091639871382637,-1.6e-05
0.19158628081457663,-3.7e-05
0.1922561629153269,-3.9e-05
0.19292604501607716,-3.7e-05
0.19359592711682744,-5.4e-05
0.19426580921757772,-7.5e-05
0.19493569131832797,-6.5e-05
0.19560557341907825,-4e-05
0.1962754555198285,-3.5e-05
0.19694533762057878,-3.5e-05
0.19761521972132903,-1.4e-05
0.1982851018220793,8e-06
0.1989549839228296,1.4e-05
0.19962486602357984,1.1e-05
0.20029474812433012,8e-06
0.20096463022508038,-4e-06
0.20163451232583066,-2.1e-05
0.2023043944265809,-2.8e-05
0.2029742765273312,-3.5e-05
0.20364415862808147,-4.6e-05
0.20431404072883172,-5.3e-05
0.204983922829582,-5.1e-05
0.20565380493033225,-3.1e-05
0.20632368703108253,-1.5e-05
0.20699356913183278,-2.4e-05
0.20766345123258306,-2.5e-05
0.20833333333333334,1e-06
0.2090032154340836,2.8e-05
0.20967309753483387,3.6e-05
0.21034297963558413,2e-05
0.2110128617363344,-2.1e-05
0.21168274383708466,-5.5e-05
0.21235262593783494,-6.1e-05
0.21302250803858522,-5.7e-05
0.21369239013933547,-6e-05
0.21436227224008575,-7.6e-05
0.215032154340836,-7.6e-05
0.21570203644158628,-3.8e-05
0.21637191854233653,-1.7e-05
0.2170418006430868,-3.5e-05
0.2177116827438371,-3.6e-05
0.21838156484458734,-2e-05
0.21905144694533762,-1.8e-05
0.21972132904608788,-1.6e-05
0.22039121114683816,-1.2e-05
0.2210610932475884,-3.5e-05
0.2217309753483387,-6.6e-05
0.22240085744908897,-7e-05
0.22307073954983922,-6.8e-05
0.2237406216505895,-8.4e-05
0.22441050375133975,-9.3e-05
0.22508038585209003,-7e-05
0.2257502679528403,-3.7e-05
0.22642015005359056,-3.3e-05
0.22709003215434084,-4.4e-05
0.2277599142550911,-2.9e-05
0.22842979635584137,-3e-06
0.22909967845659163,-1.2e-05
0.2297695605573419,-4.4e-05
0.2304394426580922,-5.2e-05
0.23110932475884244,-4.3e-05
0.23177920685959272,-3.8e-05
0.23244908896034297,-4.6e-05
0.23311897106109325,-5.8e-05
0.2337888531618435,-6e-05
0.23445873526259378,-6e-05
0.23512861736334406,-4.6e-05
0.2357984994640943,1e-06
0.2364683815648446,2.5e-05
0.23713826366559485,6e-06
0.23780814576634512,9e-06
0.23847802786709538,3.1e-05
0.23914790996784566,2.4e-05
0.23981779206859594,3e-06
0.2404876741693462,-2e-06
0.24115755627009647,-5e-06
0.24182743837084672,-2.9e-05
0.242497320471597,-4.3e-05
0.24316720257234725,-1.3e-05
0.24383708467309753,1.6e-05
0.2445069667738478,2e-06
0.24517684887459806,-7e-06
0.24584673097534834,1.3e-05
0.2465166130760986,1.6e-05
0.24718649517684887,9e-06
0.24785637727759913,2.8e-05
0.2485262593783494,3.4e-05
0.2491961414790997,2.3e-05
0.24986602357984994,4.7e-05
0.2505359056806002,7.6e-05
0.2512057877813505,5.9e-05
0.25187566988210075,2.7e-05
0.252545551982851,1.2e-05
0.2532154340836013,2e-06
0.25388531618435156,-1.6e-05
0.2545551982851018,-4.6e-05
0.25522508038585207,-6.4e-05
0.2558949624866024,-4.9e-05
0.2565648445873526,-4.1e-05
0.2572347266881029,-3.7e-05
0.2579046087888532,4e-06
0.25857449088960344,3e-05
0.2592443729903537,5e-06
0.25991425509110394,-1.8e-05
0.26058413719185425,-1.1e-05
0.2612540192926045,6e-06
0.26192390139335475,-3e-06
0.26259378349410506,-4.5e-05
0.2632636655948553,-6.1e-05
0.26393354769560556,-3.4e-05
0.2646034297963558,-4.5e-05
0.2652733118971061,-7.8e-05
0.2659431939978564,-4.9e-05
0.2666130760986066,-4e-06
0.26728295819935693,-1.7e-05
0.2679528403001072,-3.6e-05
0.26862272240085744,-2e-05
0.2692926045016077,3e-06
0.269962486602358,4e-06
0.27063236870310825,-1.9e-05
0.2713022508038585,-4e-05
0.2719721329046088,-3.7e-05
0.27264201500535906,-3.5e-05
0.2733118971061093,-4.4e-05
0.27398177920685957,-4.3e-05
0.2746516613076099,-3.6e-05
0.2753215434083601,-2e-05
0.2759914255091104,6e-06
0.2766613076098607,3e-06
0.27733118971061094,-2.4e-05
0.2780010718113612,-1.7e-05
0.27867095391211144,1.6e-05
0.27934083601286175,2.4e-05
0.280010718113612,1.8e-05
0.28068060021436225,1.9e-05
0.28135048231511256,1.2e-05
0.2820203644158628,-5e-06
0.28269024651661306,-2.4e-05
0.2833601286173633,-4.4e-05
0.2840300107181136,-4.4e-05
0.2846998928188639,-3.1e-05
0.2853697749196141,-2.8e-05
0.28603965702036444,-2e-05
0.2867095391211147,-1.7e-05
0.28737942122186494,-3e-05
0.2880493033226152,-2.2e-05
0.2887191854233655,5e-06
0.28938906752411575,1.5e-05
0.290058949624866,8e-06
0.2907288317256163,3e-06
0.29139871382636656,-4e-06
0.2920685959271168,-2.7e-05
0.29273847802786707,-5.2e-05
0.2934083601286174,-4.5e-05
0.2940782422293676,-2.9e-05
0.2947481243301179,-6.1e-05
0.2954180064308682,-9.2e-05
0.29608788853161844,-5.4e-05
0.2967577706323687,-1.9e-05
0.29742765273311894,-3.3e-05
0.29809753483386925,-2.1e-05
0.2987674169346195,2.2e-05
0.29943729903536975,3.4e-05
0.30010718113612006,1.4e-05
0.3007770632368703,-8e-06
0.30144694533762056,-1.6e-05
0.3021168274383708,-1.5e-05
0.3027867095391211,-2.9e-05
0.3034565916398714,-5.1e-05
0.30412647374062163,-6.6e-05
0.30479635584137194,-7e-05
0.3054662379421222,-4.8e-05
0.30613612004287244,-5e-06
0.3068060021436227,3e-06
0.307475884244373,-3.6e-05
0.30814576634512325,-5.3e-05
0.3088156484458735,-3.4e-05
0.3094855305466238,-2.7e-05
0.31015541264737406,-2.8e-05
0.3108252947481243,-1e-05
0.3114951768488746,-2e-06
0.3121650589496249,-2.7e-05
0.3128349410503751,-4.5e-05
0.3135048231511254,-4.3e-05
0.3141747052518757,-5e-05
0.31484458735262594,-6.3e-05
0.3155144694533762,-5.9e-05
0.3161843515541265,-3.8e-05
0.31685423365487675,-1.7e-05
0.317524115755627,1e-06
0.31819399785637725,1.7e-05
0.31886387995712756,1.9e-05
0.3195337620578778,5e-06
0.32020364415862806,4e-06
0.32087352625937837,1.8e-05
0.3215434083601286,1.3e-05
0.3222132904608789,-1.5e-05
0.32288317256162913,-4.4e-05
0.32355305466237944,-8e-05
0.3242229367631297,-9.7e-05
0.32489281886387994,-6e-05
0.32556270096463025,-1.3e-05
0.3262325830653805,6e-06
0.32690246516613075,1.8e-05
0.327572347266881,2.7e-05
0.3282422293676313,2.8e-05
0.32891211146838156,2.2e-05
0.3295819935691318,1.4e-05
0.3302518756698821,1.7e-05
0.3309217577706324,2e-05
0.3315916398713826,9e-06
0.3322615219721329,-1.4e-05
0.3329314040728832,-3.4e-05
0.33360128617363344,-4e-05
0.3342711682743837,-4.3e-05
0.334941050375134,-5.4e-05
0.33561093247588425,-5.1e-05
0.3362808145766345,-2.9e-05
0.33695069667738475,-1.6e-05
0.33762057877813506,-1.5e-05
0.3382904608788853,-6e-06
0.33896034297963556,-3e-06
0.3396302250803859,-2.2e-05
0.3403001071811361,-2.4e-05
0.3409699892818864,-9e-06
0.34163987138263663,-1.5e-05
0.34230975348338694,-3.6e-05
0.3429796355841372,-4.9e-05
0.34364951768488744,-5.6e-05
0.34431939978563775,-7.4e-05
0.344989281886388,-0.000105
0.34565916398713825,-0.000104
0.3463290460878885,-6.1e-05
0.3469989281886388,-3.7e-05
0.34766881028938906,-4.9e-05
0.3483386923901393,-2.8e-05
0.3490085744908896,3e-06
0.3496784565916399,-1.6e-05
0.3503483386923901,-2.8e-05
0.3510182207931404,1e-06
0.3516881028938907,1.1e-05
0.35235798499464094,-1.8e-05
0.3530278670953912,-5.7e-05
0.3536977491961415,-8.7e-05
0.35436763129689175,-9.1e-05
0.355037513397642,-6.1e-05
0.35570739549839225,-2.8e-05
0.35637727759914256,-3e-05
0.3570471596998928,-5.6e-05
0.35771704180064307,-5.5e-05
0.3583869239013934,-2e-05
0.3590568060021436,-1e-06
0.3597266881028939,-6e-06
0.36039657020364413,-2e-06
0.36106645230439444,5e-06
0.3617363344051447,-3e-06
0.36240621650589494,-1e-05
0.36307609860664525,-1.2e-05
0.3637459807073955,-2.5e-05
0.36441586280814575,-3.4e-05
0.365085744908896,-4.1e-05
0.3657556270096463,-4.9e-05
0.36642550911039656,-2.4e-05
0.3670953912111468,9e-06
0.3677652733118971,-8e-06
0.3684351554126474,-2.5e-05
0.3691050375133976,-4e-06
0.3697749196141479,-7e-06
0.3704448017148982,-2.3e-05
0.37111468381564844,-1e-06
0.3717845659163987,1.3e-05
0.372454448017149,8e-06
0.37312433011789925,1.2e-05
0.3737942122186495,3e-06
0.37446409431939975,-2.3e-05
0.37513397642015006,-4.1e-05
0.3758038585209003,-5.7e-05
0.37647374062165057,-4.8e-05
0.3771436227224009,-1.2e-05
0.3778135048231511,-9e-06
0.3784833869239014,-2.5e-05
0.3791532690246517,-1.6e-05
0.37982315112540194,-5e-06
0.3804930332261522,-1.5e-05
0.38116291532690244,-1.5e-05
0.38183279742765275,4e-06
0.382502679528403,0.0
0.38317256162915325,-2.6e-05
0.38384244372990356,-3.6e-05
0.3845123258306538,-3.4e-05
0.38518220793140406,-4.1e-05
0.3858520900321543,-4.7e-05
0.3865219721329046,-4e-05
0.3871918542336549,-2.9e-05
0.3878617363344051,-2e-05
0.38853161843515543,-3e-06
0.3892015005359057,1.5e-05
0.38987138263665594,1.4e-05
0.3905412647374062,3e-06
0.3912111468381565,1e-06
0.39188102893890675,9e-06
0.392550911039657,1.4e-05
0.3932207931404073,1.3e-05
0.39389067524115756,-5e-06
0.3945605573419078,-3.3e-05
0.39523043944265807,-5.3e-05
0.3959003215434084,-5e-05
0.3965702036441586,-4e-06
0.3972400857449089,4.1e-05
0.3979099678456592,2e-05
0.39857984994640944,-1.8e-05
0.3992497320471597,-4e-06
0.39991961414790994,2.4e-05
0.40058949624866025,2.5e-05
0.4012593783494105,2.3e-05
0.40192926045016075,2.8e-05
0.40259914255091106,1.9e-05
0.4032690246516613,-5e-06
0.40393890675241156,-1.5e-05
0.4046087888531618,-1.6e-05
0.4052786709539121,-3.7e-05
0.4059485530546624,-4.7e-05
0.4066184351554126,-1.4e-05
0.40728831725616294,6e-06
0.4079581993569132,-1.3e-05
0.40862808145766344,-1.9e-05
0.4092979635584137,-1.5e-05
0.409967845659164,-3.4e-05
0.41063772775991425,-3.9e-05
0.4113076098606645,-1e-05
0.4119774919614148,-1e-06
0.41264737406216506,-1.7e-05
0.4133172561629153,-1.6e-05
0.41398713826366557,-4e-06
0.4146570203644159,-1.7e-05
0.4153269024651661,-5.1e-05
0.4159967845659164,-6.6e-05
0.4166666666666667,-4.1e-05
0.41733654876741694,-2.1e-05
0.4180064308681672,-2.7e-05
0.41867631296891744,-2.4e-05
0.41934619506966775,-2.7e-05
0.420016077170418,-4.7e-05
0.42068595927116825,-3.8e-05
0.42135584137191856,-6e-06
0.4220257234726688,-8e-06
0.42269560557341906,-1.8e-05
0.4233654876741693,2e-06
0.4240353697749196,6e-06
0.4247052518756699,-2.7e-05
0.42537513397642013,-5.3e-05
0.42604501607717044,-5.4e-05
0.4267148981779207,-4.1e-05
0.42738478027867094,-3.5e-05
0.4280546623794212,-4.9e-05
0.4287245444801715,-6.5e-05
0.42939442658092175,-6.2e-05
0.430064308681672,-3.4e-05
0.4307341907824223,3e-06
0.43140407288317256,1.5e-05
0.4320739549839228,-2e-06
0.43274383708467307,-1.4e-05
0.4334137191854234,-2.2e-05
0.4340836012861736,-5.5e-05
0.4347534833869239,-8.7e-05
0.4354233654876742,-9.4e-05
0.43609324758842444,-9.9e-05
0.4367631296891747,-9.5e-05
0.43743301178992494,-7.1e-05
0.43810289389067525,-5.9e-05
0.4387727759914255,-6.1e-05
0.43944265809217575,-4.7e-05
0.44011254019292606,-3.2e-05
0.4407824222936763,-2.7e-05
0.44145230439442656,-2.2e-05
0.4421221864951768,-3.5e-05
0.4427920685959271,-5.9e-05
0.4434619506966774,-7.4e-05
0.44413183279742763,-8.4e-05
0.44480171489817794,-8.7e-05
0.4454715969989282,-7.2e-05
0.44614147909967844,-5.9e-05
0.44681136120042875,-4.3e-05
0.447481243301179,-2.8e-05
0.44815112540192925,-4.2e-05
0.4488210075026795,-5.4e-05
0.4494908896034298,-3e-05
0.45016077170418006,-1.7e-05
0.4508306538049303,-3.2e-05
0.4515005359056806,-4.1e-05
0.4521704180064309,-3.1e-05
0.4528403001071811,-3e-05
0.4535101822079314,-4.7e-05
0.4541800643086817,-5e-05
0.45484994640943194,-2.6e-05
0.4555198285101822,-2.8e-05
0.4561897106109325,-6.4e-05
0.45685959271168275,-5.5e-05
0.457529474812433,-1.2e-05
0.45819935691318325,-2.3e-05
0.45886923901393356,-6e-05
0.4595391211146838,-4.4e-05
0.46020900321543406,-1.2e-05
0.4608788853161844,-5e-06
0.4615487674169346,-4e-06
0.4622186495176849,-1.1e-05
0.46288853161843513,-3.7e-05
0.46355841371918544,-4.9e-05
0.4642282958199357,-3.1e-05
0.46489817792068594,-2.2e-05
0.46556806002143625,-3.8e-05
0.4662379421221865,-5e-05
0.46690782422293675,-3.3e-05
0.467577706323687,-8e-06
0.4682475884244373,-7e-06
0.46891747052518756,-1.5e-05
0.4695873526259378,-3e-06
0.4702572347266881,6e-06
0.4709271168274384,-9e-06
0.4715969989281886,-1.2e-05
0.4722668810289389,5e-06
0.4729367631296892,-1e-06
0.47360664523043944,-7e-06
0.4742765273311897,2.2e-05
0.47494640943194,2.5e-05
0.47561629153269025,-1.7e-05
0.4762861736334405,-4.3e-05
0.47695605573419075,-3.2e-05
0.47762593783494106,-1.8e-05
0.4782958199356913,-7e-06
0.47896570203644157,9e-06
0.4796355841371919,9e-06
0.4803054662379421,-5e-06
0.4809753483386924,3e-06
0.48164523043944263,2.1e-05
0.48231511254019294,1.7e-05
0.4829849946409432,-2e-06
0.48365487674169344,-1.2e-05
0.48432475884244375,-1.4e-05
0.484994640943194,-1.6e-05
0.48566452304394425,-2.1e-05
0.4863344051446945,-3.9e-05
0.4870042872454448,-5.2e-05
0.48767416934619506,-3.7e-05
0.4883440514469453,-2.5e-05
0.4890139335476956,-2.4e-05
0.4896838156484459,-9e-06
0.4903536977491961,1.4e-05
0.4910235798499464,2.3e-05
0.4916934619506967,9e-06
0.49236334405144694,-2.3e-05
0.4930332261521972,-3.9e-05
0.4937031082529475,-4.1e-05
0.49437299035369775,-6.5e-05
0.495042872454448,-9e-05
0.49571275455519825,-8e-05
0.49638263665594856,-6.5e-05
0.4970525187566988,-4.3e-05
0.49772240085744907,-9e-06
0.4983922829581994,-8e-06
0.4990621650589496,-3.8e-05
0.4997320471596999,-3.9e-05
0.5004019292604501,-8e-06
0.5010718113612004,9e-06
0.5017416934619507,-2e-06
0.502411575562701,-2.1e-05
0.5030814576634512,-3.9e-05
0.5037513397642015,-5.6e-05
0.5044212218649518,-6.4e-05
0.505091103965702,-5.9e-05
0.5057609860664523,-4.4e-05
0.5064308681672026,-3.2e-05
0.5071007502679529,-1.6e-05
0.5077706323687031,8e-06
0.5084405144694534,1.9e-05
0.5091103965702036,2.1e-05
0.5097802786709539,3.8e-05
0.5104501607717041,5.6e-05
0.5111200428724545,4.9e-05
0.5117899249732047,2.7e-05
0.512459807073955,9e-06
0.5131296891747053,1e-06
0.5137995712754555,2e-06
0.5144694533762058,1.5e-05
0.515139335476956,2.6e-05
0.5158092175777064,2.7e-05
0.5164790996784566,1.1e-05
0.5171489817792069,-7e-06
0.5178188638799571,-1.2e-05
0.5184887459807074,-1.1e-05
0.5191586280814576,2e-06
0.5198285101822079,2.5e-05
0.5204983922829582,2.8e-05
0.5211682743837085,1.5e-05
0.5218381564844587,1.7e-05
0.522508038585209,2.3e-05
0.5231779206859593,5e-06
0.5238478027867095,-1.6e-05
0.5245176848874598,-1.8e-05
0.5251875669882101,-1.8e-05
0.5258574490889604,-4.1e-05
0.5265273311897106,-7.4e-05
0.5271972132904609,-7.1e-05
0.5278670953912111,-4.4e-05
0.5285369774919614,-5e-05
0.5292068595927116,-7e-05
0.529876741693462,-5.7e-05
0.5305466237942122,-4e-05
0.5312165058949625,-3.9e-05
0.5318863879957128,-3.3e-05
0.532556270096463,-2.8e-05
0.5332261521972133,-5.4e-05
0.5338960342979635,-8.4e-05
0.5345659163987139,-6.9e-05
0.5352357984994641,-4e-05
0.5359056806002144,-4e-05
0.5365755627009646,-3.5e-05
0.5372454448017149,-5e-06
0.5379153269024651,-1.3e-05
0.5385852090032154,-4.3e-05
0.5392550911039657,-3.2e-05
0.539924973204716,-2.2e-05
0.5405948553054662,-2.6e-05
0.5412647374062165,1.3e-05
0.5419346195069668,5e-05
0.542604501607717,2.1e-05
0.5432743837084673,-1.9e-05
0.5439442658092176,-2.1e-05
0.5446141479099679,-1.9e-05
0.5452840300107181,-3e-05
0.5459539121114684,-3.7e-05
0.5466237942122186,-5.4e-05
0.5472936763129689,-5.4e-05
0.5479635584137191,8e-06
0.5486334405144695,6e-05
0.5493033226152197,5.3e-05
0.54997320471597,5e-05
0.5506430868167203,5.6e-05
0.5513129689174705,3.4e-05
0.5519828510182208,1.5e-05
0.552652733118971,1.4e-05
0.5533226152197214,3e-06
0.5539924973204716,-1.2e-05
0.5546623794212219,-1e-05
0.5553322615219721,-1e-05
0.5560021436227224,-3.1e-05
0.5566720257234726,-4.4e-05
0.5573419078242229,-9e-06
0.5580117899249732,2.4e-05
0.5586816720257235,-7e-06
0.5593515541264737,-2.7e-05
0.560021436227224,6e-06
0.5606913183279743,9e-06
0.5613612004287245,-8e-06
0.5620310825294748,1.3e-05
0.5627009646302251,1.1e-05
0.5633708467309754,-2.2e-05
0.5640407288317256,-1.4e-05
0.5647106109324759,1.6e-05
0.5653804930332261,4e-06
0.5660503751339764,-3.4e-05
0.5667202572347266,-4e-05
0.567390139335477,-1.6e-05
0.5680600214362272,3e-06
0.5687299035369775,9e-06
0.5693997856377278,8e-06
0.570069667738478,2e-06
0.5707395498392283,2e-06
0.5714094319399785,2e-06
0.5720793140407289,-1.6e-05
0.5727491961414791,-2.6e-05
0.5734190782422294,-4e-06
0.5740889603429796,1.7e-05
0.5747588424437299,5e-06
0.5754287245444801,1e-06
0.5760986066452304,3.9e-05
0.5767684887459807,5.9e-05
0.577438370846731,3.3e-05
0.5781082529474812,2.7e-05
0.5787781350482315,4.8e-05
0.5794480171489818,5.2e-05
0.580117899249732,3.4e-05
0.5807877813504823,1.4e-05
0.5814576634512326,1.2e-05
0.5821275455519829,-3e-06
0.5827974276527331,-2.3e-05
0.5834673097534834,-1.2e-05
0.5841371918542336,-2.2e-05
0.5848070739549839,-4.5e-05
0.5854769560557341,-1e-05
0.5861468381564845,3e-06
0.5868167202572347,-4.3e-05
0.587486602357985,-1.7e-05
0.5881564844587353,5.4e-05
0.5888263665594855,2.2e-05
0.5894962486602358,-3.8e-05
0.590166130760986,1.7e-05
0.5908360128617364,8.4e-05
0.5915058949624866,5.9e-05
0.5921757770632369,3.8e-05
0.5928456591639871,6e-05
0.5935155412647374,2.5e-05
0.5941854233654876,-5.5e-05
0.5948553054662379,-9.2e-05
0.5955251875669882,-8e-05
0.5961950696677385,-6.5e-05
0.5968649517684887,-6.2e-05
0.597534833869239,-3.8e-05
0.5982047159699893,2e-06
0.5988745980707395,0.0
0.5995444801714898,-2e-05
0.6002143622722401,1.2e-05
0.6008842443729904,5.6e-05
0.6015541264737406,5.6e-05
0.6022240085744909,2e-05
0.6028938906752411,-3.4e-05
0.6035637727759914,-6.7e-05
0.6042336548767416,-4.3e-05
0.604903536977492,-2.1e-05
0.6055734190782422,-4.5e-05
0.6062433011789925,-6e-05
0.6069131832797428,-4.8e-05
0.607583065380493,-2.7e-05
0.6082529474812433,7e-06
0.6089228295819935,2.4e-05
0.6095927116827439,5e-06
0.6102625937834941,-6e-06
0.6109324758842444,-1.1e-05
0.6116023579849946,-3.4e-05
0.6122722400857449,-4.4e-05
0.6129421221864951,-3.5e-05
0.6136120042872454,-3.4e-05
0.6142818863879957,-3.5e-05
0.614951768488746,-4e-05
0.6156216505894962,-5.9e-05
0.6162915326902465,-7e-05
0.6169614147909968,-7.3e-05
0.617631296891747,-7.9e-05
0.6183011789924974,-8.4e-05
0.6189710610932476,-8.1e-05
0.6196409431939979,-6.9e-05
0.6203108252947481,-6.1e-05
0.6209807073954984,-6.9e-05
0.6216505894962486,-7.1e-05
0.6223204715969989,-6e-05
0.6229903536977492,-6e-05
0.6236602357984995,-5.3e-05
0.6243301178992497,-3.1e-05
0.625,-2.8e-05
0.6256698821007503,-4.6e-05
0.6263397642015005,-6.8e-05
0.6270096463022508,-9.7e-05
0.6276795284030011,-0.0001
0.6283494105037514,-5.2e-05
0.6290192926045016,-2.2e-05
0.6296891747052519,-4.4e-05
0.6303590568060021,-5.6e-05
0.6310289389067524,-4.2e-05
0.6316988210075026,-3.4e-05
0.632368703108253,-2.3e-05
0.6330385852090032,9e-06
0.6337084673097535,2e-05
0.6343783494105038,1e-06
0.635048231511254,-1.1e-05
0.6357181136120043,-2.2e-05
0.6363879957127545,-4e-05
0.6370578778135049,-4.6e-05
0.6377277599142551,-3.1e-05
0.6383976420150054,-1.7e-05
0.6390675241157556,-2.2e-05
0.6397374062165059,-1.3e-05
0.6404072883172561,1.6e-05
0.6410771704180064,2.2e-05
0.6417470525187567,1.8e-05
0.642416934619507,2.7e-05
0.6430868167202572,2.7e-05
0.6437566988210075,7e-06
0.6444265809217578,-2.4e-05
0.645096463022508,-5.2e-05
0.6457663451232583,-7.1e-05
0.6464362272240086,-8.8e-05
0.6471061093247589,-9e-05
0.6477759914255091,-6.7e-05
0.6484458735262594,-3e-05
0.6491157556270096,-1.3e-05
0.6497856377277599,-2.5e-05
0.6504555198285101,-4e-05
0.6511254019292605,-4.4e-05
0.6517952840300107,-4.8e-05
0.652465166130761,-7.4e-05
0.6531350482315113,-0.000101
0.6538049303322615,-0.000108
0.6544748124330118,-0.000106
0.655144694533762,-8.3e-05
0.6558145766345124,-6.2e-05
0.6564844587352626,-8.5e-05
0.6571543408360129,-9.4e-05
0.6578242229367631,-5.6e-05
0.6584941050375134,-3.7e-05
0.6591639871382636,-3.6e-05
0.6598338692390139,-3e-06
0.6605037513397642,1.4e-05
0.6611736334405145,-2.9e-05
0.6618435155412647,-6.7e-05
0.662513397642015,-6.1e-05
0.6631832797427653,-4e-05
0.6638531618435155,-2.7e-05
0.6645230439442658,-3.9e-05
0.6651929260450161,-6.1e-05
0.6658628081457664,-4.6e-05
0.6665326902465166,-3.9e-05
0.6672025723472669,-8e-05
0.6678724544480171,-7.4e-05
0.6685423365487674,1e-06
0.6692122186495176,1.3e-05
0.669882100750268,-2.9e-05
0.6705519828510182,-2.3e-05
0.6712218649517685,1e-06
0.6718917470525188,7e-06
0.672561629153269,2.6e-05
0.6732315112540193,4.7e-05
0.6739013933547695,1.6e-05
0.6745712754555199,-6.2e-05
0.6752411575562701,-0.000123
0.6759110396570204,-0.000118
0.6765809217577706,-7.9e-05
0.6772508038585209,-7.7e-05
0.6779206859592711,-9.5e-05
0.6785905680600214,-7.4e-05
0.6792604501607717,-7.9e-05
0.679930332261522,-0.000122
0.6806002143622722,-9.1e-05
0.6812700964630225,-6e-06
0.6819399785637728,4e-06
0.682609860664523,-5.1e-05
0.6832797427652733,-6.4e-05
0.6839496248660236,-5.3e-05
0.6846195069667739,-6.8e-05
0.6852893890675241,-7.7e-05
0.6859592711682744,-7.4e-05
0.6866291532690246,-9e-05
0.6872990353697749,-0.000116
0.6879689174705251,-0.000103
0.6886387995712755,-5.5e-05
0.6893086816720257,-3.9e-05
0.689978563772776,-5.8e-05
0.6906484458735263,-5.9e-05
0.6913183279742765,-4.6e-05
0.6919882100750268,-3e-05
0.692658092175777,-2e-06
0.6933279742765274,1.1e-05
0.6939978563772776,1e-06
0.6946677384780279,-5e-06
0.6953376205787781,-1.4e-05
0.6960075026795284,-3.7e-05
0.6966773847802786,-5.4e-05
0.6973472668810289,-5.7e-05
0.6980171489817792,-5.4e-05
0.6986870310825295,-5.4e-05
0.6993569131832797,-5.9e-05
0.70002679528403,-5.5e-05
0.7006966773847803,-3.5e-05
0.7013665594855305,-2.5e-05
0.7020364415862808,-2.5e-05
0.7027063236870311,5e-06
0.7033762057877814,4.4e-05
0.7040460878885316,3.6e-05
0.7047159699892819,6e-06
0.7053858520900321,-1.9e-05
0.7060557341907824,-6.4e-05
0.7067256162915326,-0.000103
0.707395498392283,-9.7e-05
0.7080653804930332,-8.1e-05
0.7087352625937835,-7.1e-05
0.7094051446945338,-5.5e-05
0.710075026795284,-4.4e-05
0.7107449088960343,-3.5e-05
0.7114147909967845,-1.9e-05
0.7120846730975349,-8e-06
0.7127545551982851,-4e-06
0.7134244372990354,1e-06
0.7140943193997856,-1.7e-05
0.7147642015005359,-4.6e-05
0.7154340836012861,-3.4e-05
0.7161039657020364,-1e-05
0.7167738478027867,-2.9e-05
0.717443729903537,-7.1e-05
0.7181136120042872,-8.5e-05
0.7187834941050375,-5.9e-05
0.7194533762057878,-2.2e-05
0.720123258306538,-7e-06
0.7207931404072883,6e-06
0.7214630225080386,5.8e-05
0.7221329046087889,8e-05
0.7228027867095391,-1.7e-05
0.7234726688102894,-0.00011
0.7241425509110396,-7.9e-05
0.7248124330117899,-4.5e-05
0.7254823151125401,-6e-05
0.7261521972132905,-2.5e-05
0.7268220793140407,9e-06
0.727491961414791,-3.1e-05
0.7281618435155413,-4.1e-05
0.7288317256162915,6e-06
0.7295016077170418,-1.6e-05
0.730171489817792,-6.7e-05
0.7308413719185424,-3.2e-05
0.7315112540192926,0.0
0.7321811361200429,-5.2e-05
0.7328510182207931,-8.5e-05
0.7335209003215434,-5e-05
0.7341907824222936,-2.3e-05
0.7348606645230439,-2.2e-05
0.7355305466237942,-1.8e-05
0.7362004287245445,-1.5e-05
0.7368703108252947,-2.1e-05
0.737540192926045,-1.9e-05
0.7382100750267953,-1e-06
0.7388799571275455,-1.5e-05
0.7395498392282958,-8.4e-05
0.7402197213290461,-0.000118
0.7408896034297964,-5.9e-05
0.7415594855305466,-1.3e-05
0.7422293676312969,-3.3e-05
0.7428992497320471,-3.8e-05
0.7435691318327974,-2.7e-05
0.7442390139335476,-4.8e-05
0.744908896034298,-4.7e-05
0.7455787781350482,5e-06
0.7462486602357985,1.6e-05
0.7469185423365488,-5.8e-05
0.747588424437299,-0.000127
0.7482583065380493,-0.000113
0.7489281886387995,-6.4e-05
0.7495980707395499,-7e-05
0.7502679528403001,-0.000105
0.7509378349410504,-9.9e-05
0.7516077170418006,-8.3e-05
0.7522775991425509,-6.1e-05
0.7529474812433011,-3e-06
0.7536173633440514,3.1e-05
0.7542872454448017,-3e-06
0.754957127545552,-4e-05
0.7556270096463023,-3.2e-05
0.7562968917470525,-2.8e-05
0.7569667738478028,-5.4e-05
0.757636655948553,-8.3e-05
0.7583065380493034,-0.000105
0.7589764201500536,-0.000106
0.7596463022508039,-7.8e-05
0.7603161843515541,-5.8e-05
0.7609860664523044,-5.2e-05
0.7616559485530546,-4.5e-05
0.7623258306538049,-4.7e-05
0.7629957127545552,-5.4e-05
0.7636655948553055,-4.6e-05
0.7643354769560557,-3.7e-05
0.765005359056806,-4.2e-05
0.7656752411575563,-5.2e-05
0.7663451232583065,-6e-05
0.7670150053590568,-6.5e-05
0.7676848874598071,-7.7e-05
0.7683547695605574,-9e-05
0.7690246516613076,-8.7e-05
0.7696945337620579,-7e-05
0.7703644158628081,-6.2e-05
0.7710342979635584,-5.7e-05
0.7717041800643086,-4.4e-05
0.772374062165059,-5.8e-05
0.7730439442658092,-8.7e-05
0.7737138263665595,-8.3e-05
0.7743837084673098,-8.5e-05
0.77505359056806,-0.000117
0.7757234726688103,-0.000116
0.7763933547695605,-8.7e-05
0.7770632368703109,-9.9e-05
0.7777331189710611,-0.000122
0.7784030010718114,-9.2e-05
0.7790728831725616,-2.6e-05
0.7797427652733119,1e-06
0.7804126473740621,-5e-05
0.7810825294748124,-0.000116
0.7817524115755627,-0.000125
0.782422293676313,-8.3e-05
0.7830921757770632,-2.6e-05
0.7837620578778135,1.2e-05
0.7844319399785638,1.4e-05
0.785101822079314,-8e-06
0.7857717041800643,-3e-05
0.7864415862808146,-5e-05
0.7871114683815649,-8.7e-05
0.7877813504823151,-0.000121
0.7884512325830654,-8.6e-05
0.7891211146838156,-1e-05
0.7897909967845659,-2e-06
0.7904608788853161,-8e-05
0.7911307609860665,-0.000107
0.7918006430868167,-7e-06
0.792470525187567,7.9e-05
0.7931404072883173,4.4e-05
0.7938102893890675,-5e-06
0.7944801714898178,-1.4e-05
0.795150053590568,-3.2e-05
0.7958199356913184,-3.1e-05
0.7964898177920686,-1.3e-05
0.7971596998928189,-5.2e-05
0.7978295819935691,-0.000105
0.7984994640943194,-8.9e-05
0.7991693461950696,-4.7e-05
0.7998392282958199,-5.3e-05
0.8005091103965702,-7.3e-05
0.8011789924973205,-6.2e-05
0.8018488745980707,-6.1e-05
0.802518756698821,-7.6e-05
0.8031886387995713,-5.6e-05
0.8038585209003215,-4.1e-05
0.8045284030010718,-8.8e-05
0.8051982851018221,-0.000118
0.8058681672025724,-6.9e-05
0.8065380493033226,-1.7e-05
0.8072079314040729,-2.8e-05
0.8078778135048231,-6.6e-05
0.8085476956055734,-9.6e-05
0.8092175777063236,-0.000122
0.809887459807074,-0.000121
0.8105573419078242,-8.9e-05
0.8112272240085745,-7.6e-05
0.8118971061093248,-8.4e-05
0.812566988210075,-7.4e-05
0.8132368703108253,-6.5e-05
0.8139067524115755,-5.4e-05
0.8145766345123259,-1.7e-05
0.8152465166130761,-5e-06
0.8159163987138264,-2.5e-05
0.8165862808145766,-2.8e-05
0.8172561629153269,-4e-05
0.8179260450160771,-6.9e-05
0.8185959271168274,-6.1e-05
0.8192658092175777,-3.8e-05
0.819935691318328,-6.1e-05
0.8206055734190782,-9.2e-05
0.8212754555198285,-8.1e-05
0.8219453376205788,-4.5e-05
0.822615219721329,9e-06
0.8232851018220793,5.1e-05
0.8239549839228296,2.5e-05
0.8246248660235799,-2.8e-05
0.8252947481243301,-5.3e-05
0.8259646302250804,-5.5e-05
0.8266345123258306,-2.9e-05
0.8273043944265809,-9e-06
0.8279742765273311,-5.3e-05
0.8286441586280815,-9e-05
0.8293140407288317,-2.8e-05
0.829983922829582,2.1e-05
0.8306538049303323,-3.7e-05
0.8313236870310825,-8e-05
0.8319935691318328,-4.4e-05
0.832663451232583,-5.1e-05
0.8333333333333334,-0.000117
0.8340032154340836,-0.0001
0.8346730975348339,-1.4e-05
0.8353429796355841,1.5e-05
0.8360128617363344,1.5e-05
0.8366827438370846,1.4e-05
0.8373526259378349,-4.9e-05
0.8380225080385852,-0.000122
0.8386923901393355,-0.000111
0.8393622722400857,-6.5e-05
0.840032154340836,-6.3e-05
0.8407020364415863,-8.9e-05
0.8413719185423365,-8.9e-05
0.8420418006430868,-7.1e-05
0.8427116827438371,-7.3e-05
0.8433815648445874,-6.6e-05
0.8440514469453376,-2.1e-05
0.8447213290460879,7e-06
0.8453912111468381,-0.0
0.8460610932475884,1.6e-05
0.8467309753483386,3.7e-05
0.847400857449089,1e-06
0.8480707395498392,-4.7e-05
0.8487406216505895,-5.8e-05
0.8494105037513398,-4.3e-05
0.85008038585209,-2.4e-05
0.8507502679528403,-3.3e-05
0.8514201500535905,-7.1e-05
0.8520900321543409,-9.8e-05
0.8527599142550911,-9.5e-05
0.8534297963558414,-7.4e-05
0.8540996784565916,-4.5e-05
0.8547695605573419,-1.7e-05
0.8554394426580921,2e-06
0.8561093247588424,1.3e-05
0.8567792068595927,1e-05
0.857449088960343,-5e-06
0.8581189710610932,-1.8e-05
0.8587888531618435,-4.4e-05
0.8594587352625938,-5.4e-05
0.860128617363344,-2.5e-05
0.8607984994640943,-3.4e-05
0.8614683815648446,-8.5e-05
0.8621382636655949,-8.7e-05
0.8628081457663451,-4.2e-05
0.8634780278670954,-1.4e-05
0.8641479099678456,-1.6e-05
0.8648177920685959,-2.5e-05
0.8654876741693461,-2.5e-05
0.8661575562700965,-2.4e-05
0.8668274383708467,-3.9e-05
0.867497320471597,-5.3e-05
0.8681672025723473,-5.5e-05
0.8688370846730975,-4.7e-05
0.8695069667738478,-1.9e-05
0.870176848874598,3e-06
0.8708467309753484,-1.5e-05
0.8715166130760986,-3.5e-05
0.8721864951768489,-2.5e-05
0.8728563772775991,-1.6e-05
0.8735262593783494,-1.7e-05
0.8741961414790996,-7e-06
0.8748660235798499,1.7e-05
0.8755359056806002,3.1e-05
0.8762057877813505,2.2e-05
0.8768756698821008,1.4e-05
0.877545551982851,2.2e-05
0.8782154340836013,-0.0
0.8788853161843515,-3.6e-05
0.8795551982851018,-1.5e-05
0.8802250803858521,1e-05
0.8808949624866024,-3e-05
0.8815648445873526,-4.2e-05
0.8822347266881029,1.3e-05
0.8829046087888531,3.4e-05
0.8835744908896034,-5e-06
0.8842443729903536,-3.6e-05
0.884914255091104,-5e-05
0.8855841371918542,-3.3e-05
0.8862540192926045,-0.0
0.8869239013933548,-2.7e-05
0.887593783494105,-7.9e-05
0.8882636655948553,-7.1e-05
0.8889335476956055,-3.2e-05
0.8896034297963559,-0.0
0.8902733118971061,2.5e-05
0.8909431939978564,1.3e-05
0.8916130760986066,-2.3e-05
0.8922829581993569,-1.7e-05
0.8929528403001071,-1.1e-05
0.8936227224008575,-5.6e-05
0.8942926045016077,-4.9e-05
0.894962486602358,4.1e-05
0.8956323687031083,5.9e-05
0.8963022508038585,-1.3e-05
0.8969721329046088,-4.2e-05
0.897642015005359,-3.7e-05
0.8983118971061094,-8e-05
0.8989817792068596,-0.000118
0.8996516613076099,-8.8e-05
0.9003215434083601,-4.9e-05
0.9009914255091104,-5e-05
0.9016613076098606,-5.1e-05
0.9023311897106109,-3e-05
0.9030010718113612,-2.2e-05
0.9036709539121115,-4.1e-05
0.9043408360128617,-5.4e-05
0.905010718113612,-4.3e-05
0.9056806002143623,-5.1e-05
0.9063504823151125,-8e-05
0.9070203644158628,-6.5e-05
0.9076902465166131,-4e-05
0.9083601286173634,-8.7e-05
0.9090300107181136,-0.000129
0.9096998928188639,-9.6e-05
0.9103697749196141,-9.8e-05
0.9110396570203644,-0.000177
0.9117095391211146,-0.000196
0.912379421221865,-0.000131
0.9130493033226152,-9.1e-05
0.9137191854233655,-5.8e-05
0.9143890675241158,-1.7e-05
0.915058949624866,-2.9e-05
0.9157288317256163,-5.3e-05
0.9163987138263665,-6.2e-05
0.9170685959271169,-8.3e-05
0.9177384780278671,-5.1e-05
0.9184083601286174,8e-06
0.9190782422293676,-2.4e-05
0.9197481243301179,-7.7e-05
0.9204180064308681,-6.8e-05
0.9210878885316184,-7.6e-05
0.9217577706323687,-8.5e-05
0.922427652733119,-4.7e-05
0.9230975348338692,-3.8e-05
0.9237674169346195,-5.8e-05
0.9244372990353698,-2e-05
0.92510718113612,2e-05
0.9257770632368703,-1.1e-05
0.9264469453376206,-4.1e-05
0.9271168274383709,-2e-05
0.9277867095391211,7e-06
0.9284565916398714,-9e-06
0.9291264737406216,-5.6e-05
0.9297963558413719,-8.2e-05
0.9304662379421221,-7.1e-05
0.9311361200428725,-6.8e-05
0.9318060021436227,-7.5e-05
0.932475884244373,-6.7e-05
0.9331457663451233,-6.2e-05
0.9338156484458735,-5.4e-05
0.9344855305466238,-2.6e-05
0.935155412647374,-1.1e-05
0.9358252947481244,-2.6e-05
0.9364951768488746,-4.1e-05
0.9371650589496249,-5e-05
0.9378349410503751,-7.4e-05
0.9385048231511254,-9.3e-05
0.9391747052518756,-9.5e-05
0.9398445873526259,-9.2e-05
0.9405144694533762,-8e-05
0.9411843515541265,-9.3e-05
0.9418542336548767,-0.000122
0.942524115755627,-0.000114
0.9431939978563773,-6.6e-05
0.9438638799571275,-1.4e-05
0.9445337620578778,1.2e-05
0.9452036441586281,2.2e-05
0.9458735262593784,3.6e-05
0.9465434083601286,2.6e-05
0.9472132904608789,2.9e-05
0.9478831725616291,6.2e-05
0.9485530546623794,1.5e-05
0.9492229367631296,-9.6e-05
0.94989281886388,-9.6e-05
0.9505627009646302,-7e-06
0.9512325830653805,1.4e-05
0.9519024651661308,7e-06
0.952572347266881,1.5e-05
0.9532422293676313,-4.1e-05
0.9539121114683815,-7.9e-05
0.9545819935691319,-1.5e-05
0.9552518756698821,2e-05
0.9559217577706324,-1e-06
0.9565916398713826,3.4e-05
0.9572615219721329,7.1e-05
0.9579314040728831,2.9e-05
0.9586012861736334,-1.2e-05
0.9592711682743837,2e-06
0.959941050375134,1.8e-05
0.9606109324758842,1e-06
0.9612808145766345,-4.1e-05
0.9619506966773848,-6.2e-05
0.962620578778135,-4.4e-05
0.9632904608788853,-2.3e-05
0.9639603429796356,-6e-06
0.9646302250803859,8e-06
0.9653001071811361,-1.5e-05
0.9659699892818864,-6.2e-05
0.9666398713826366,-7.8e-05
0.9673097534833869,-4.2e-05
0.9679796355841371,-1.6e-05
0.9686495176848875,-5.2e-05
0.9693193997856377,-8.8e-05
0.969989281886388,-5.6e-05
0.9706591639871383,-1e-05
0.9713290460878885,-8e-06
0.9719989281886388,-2e-06
0.972668810289389,1.1e-05
0.9733386923901394,1e-05
0.9740085744908896,3.7e-05
0.9746784565916399,6.5e-05
0.9753483386923901,4.8e-05
0.9760182207931404,3.9e-05
0.9766881028938906,4.7e-05
0.9773579849946409,1.8e-05
0.9780278670953912,-3.6e-05
0.9786977491961415,-8.4e-05
0.9793676312968917,-0.000102
0.980037513397642,-5.5e-05
0.9807073954983923,-2.7e-05
0.9813772775991425,-9.3e-05
0.9820471596998928,-0.000108
0.9827170418006431,-4e-05
0.9833869239013934,-1.7e-05
0.9840568060021436,4.7e-05
0.9847266881028939,0.000172
0.9853965702036441,0.000168
0.9860664523043944,9.8e-05
0.9867363344051446,8.8e-05
0.987406216505895,3.5e-05
0.9880760986066452,-6.1e-05
0.9887459807073955,-7.1e-05
0.9894158628081458,-5.7e-05
0.990085744908896,-8.8e-05
0.9907556270096463,-0.000104
0.9914255091103965,-0.000125
0.9920953912111469,-0.00015
0.9927652733118971,-0.000118
0.9934351554126474,-7.1e-05
0.9941050375133976,-4.3e-05
0.9947749196141479,-2e-05
0.9954448017148981,-9e-06
0.9961146838156484,-1.2e-05
0.9967845659163987,-4.9e-05
0.997454448017149,-0.000107
0.9981243301178992,-0.000116
0.9987942122186495,-9.8e-05
0.9994640943193998,-0.000119
1.00013397642015,-0.00012
1.0008038585209003,-6.1e-05
1.0014737406216505,-4.1e-05
1.0021436227224008,-8.6e-05
1.002813504823151,-0.000126
1.0034833869239015,-0.000149
1.0041532690246517,-0.000158
1.004823151125402,-0.000165
1.0054930332261522,-0.000181
1.0061629153269025,-0.000139
1.0068327974276527,-3.3e-05
1.007502679528403,-0.0
1.0081725616291533,-5.4e-05
1.0088424437299035,-8.4e-05
1.0095123258306538,-9.8e-05
1.010182207931404,-0.000114
1.0108520900321543,-5.8e-05
1.0115219721329045,-5e-06
1.0121918542336548,-7.8e-05
1.0128617363344052,-0.000142
1.0135316184351555,-8.2e-05
1.0142015005359057,-4.8e-05
1.014871382636656,-0.000106
1.0155412647374062,-0.00014
1.0162111468381565,-0.000134
1.0168810289389068,-0.000119
1.017550911039657,-6.4e-05
1.0182207931404073,-5.1e-05
1.0188906752411575,-0.000133
1.0195605573419078,-0.00017
1.020230439442658,-8.2e-05
1.0209003215434083,-1.1e-05
1.0215702036441585,-8.5e-05
1.022240085744909,-0.000164
1.0229099678456592,-0.000106
1.0235798499464095,-6.8e-05
1.0242497320471597,-0.000131
1.02491961414791,-0.000143
1.0255894962486602,-9.2e-05
1.0262593783494105,-0.000109
1.0269292604501608,-0.000184
1.027599142550911,-0.000172
1.0282690246516613,-7.7e-05
1.0289389067524115,-1.1e-05
1.0296087888531618,4.3e-05
1.030278670953912,9.4e-05
1.0309485530546623,6.6e-05
1.0316184351554127,-3.4e-05
1.032288317256163,-0.000148
1.0329581993569132,-0.000204
1.0336280814576635,-0.000105
1.0342979635584137,0.000134
1.034967845659164,0.000307
1.0356377277599143,0.000297
1.0363076098606645,0.000229
1.0369774919614148,0.000146
1.037647374062165,-4.4e-05
1.0383172561629153,-0.000273
1.0389871382636655,-0.00036
1.0396570203644158,-0.000262
1.040326902465166,-0.000133
1.0409967845659165,-9.8e-05
1.0416666666666667,-0.000109
1.042336548767417,-0.00011
1.0430064308681672,-9.1e-05
1.0436763129689175,-4.1e-05
1.0443461950696677,0.0
1.045016077170418,-3.8e-05
1.0456859592711683,-0.000138
1.0463558413719185,-0.000228
1.0470257234726688,-0.000326
1.047695605573419,-0.000452
1.0483654876741693,-0.000466
1.0490353697749195,-0.000301
1.0497052518756698,-0.00021
1.0503751339764202,-0.000376
1.0510450160771705,-0.000573
1.0517148981779207,-0.000581
1.052384780278671,-0.000497
1.0530546623794212,-0.000443
1.0537245444801715,-0.000409
1.0543944265809218,-0.000436
1.055064308681672,-0.000512
1.0557341907824223,-0.00047
1.0564040728831725,-0.000324
1.0570739549839228,-0.000269
1.057743837084673,-0.000308
1.0584137191854233,-0.000328
1.0590836012861735,-0.000346
1.059753483386924,-0.000419
1.0604233654876742,-0.000505
1.0610932475884245,-0.000542
1.0617631296891747,-0.000546
1.062433011789925,-0.000517
1.0631028938906752,-0.000428
1.0637727759914255,-0.000314
1.0644426580921758,-0.000207
1.065112540192926,-0.000147
1.0657824222936763,-0.000181
1.0664523043944265,-0.000281
1.0671221864951768,-0.000359
1.067792068595927,-0.000422
1.0684619506966773,-0.000549
1.0691318327974277,-0.000688
1.069801714898178,-0.000707
1.0704715969989282,-0.000629
1.0711414790996785,-0.000598
1.0718113612004287,-0.00066
1.072481243301179,-0.000689
1.0731511254019293,-0.000546
1.0738210075026795,-0.000307
1.0744908896034298,-0.000256
1.07516077170418,-0.000468
1.0758306538049303,-0.000617
1.0765005359056805,-0.000531
1.0771704180064308,-0.000429
1.077840300107181,-0.000422
1.0785101822079315,-0.000492
1.0791800643086817,-0.000722
1.079849946409432,-0.000917
1.0805198285101822,-0.000811
1.0811897106109325,-0.000668
1.0818595927116827,-0.000711
1.082529474812433,-0.000715
1.0831993569131833,-0.000615
1.0838692390139335,-0.00051
1.0845391211146838,-0.000228
1.085209003215434,0.00023
1.0858788853161843,0.000385
1.0865487674169345,6.9e-05
1.0872186495176848,-0.00026
1.0878885316184352,-0.000264
1.0885584137191855,-0.000102
1.0892282958199357,-9.5e-05
1.089898177920686,-0.000174
1.0905680600214362,2.9e-05
1.0912379421221865,0.000235
1.0919078242229368,-3.3e-05
1.092577706323687,-0.000331
1.0932475884244373,-0.000342
1.0939174705251875,-0.000394
1.0945873526259378,-0.000382
1.095257234726688,-0.00018
1.0959271168274383,-0.000118
1.0965969989281885,-0.000184
1.097266881028939,-0.000142
1.0979367631296892,-2.1e-05
1.0986066452304395,7.5e-05
1.0992765273311897,-7.6e-05
1.09994640943194,-0.000407
1.1006162915326902,-0.000447
1.1012861736334405,-0.000337
1.1019560557341908,-0.000474
1.102625937834941,-0.000614
1.1032958199356913,-0.000586
1.1039657020364415,-0.000607
1.1046355841371918,-0.000546
1.105305466237942,-0.000219
1.1059753483386925,-0.000242
1.1066452304394427,-0.000913
1.107315112540193,-0.001236
1.1079849946409432,-0.000895
1.1086548767416935,-0.000825
1.1093247588424437,-0.001063
1.109994640943194,-0.000984
1.1106645230439443,-0.0008
1.1113344051446945,-0.0008
1.1120042872454448,-0.000734
1.112674169346195,-0.000589
1.1133440514469453,-0.00055
1.1140139335476955,-0.000444
1.1146838156484458,-0.000185
1.1153536977491962,-1.1e-05
1.1160235798499465,0.00011
1.1166934619506967,0.000308
1.117363344051447,0.000361
1.1180332261521972,0.000238
1.1187031082529475,0.000256
1.1193729903536977,0.000411
1.120042872454448,0.000475
1.1207127545551983,0.000522
1.1213826366559485,0.000655
1.1220525187566988,0.000731
1.122722400857449,0.000726
1.1233922829581993,0.000747
1.1240621650589495,0.000765
1.1247320471597,0.00086
1.1254019292604502,0.001209
1.1260718113612005,0.001533
1.1267416934619507,0.00145
1.127411575562701,0.001164
1.1280814576634512,0.000969
1.1287513397642015,0.000708
1.1294212218649518,0.000415
1.130091103965702,0.00048
1.1307609860664523,0.000697
1.1314308681672025,0.000605
1.1321007502679528,0.000497
1.132770632368703,0.000746
1.1334405144694533,0.001061
1.1341103965702037,0.000927
1.134780278670954,0.000441
1.1354501607717042,0.000227
1.1361200428724545,0.000253
1.1367899249732047,9.6e-05
1.137459807073955,-1.4e-05
1.1381296891747053,-2e-06
1.1387995712754555,-0.000269
1.1394694533762058,-0.000552
1.140139335476956,-0.000418
1.1408092175777063,-0.000228
1.1414790996784565,-0.000302
1.1421489817792068,-0.000409
1.142818863879957,-0.000387
1.1434887459807075,-0.000355
1.1441586280814577,-0.000432
1.144828510182208,-0.000436
1.1454983922829582,-5.6e-05
1.1461682743837085,0.000343
1.1468381564844587,0.000193
1.147508038585209,-0.000149
1.1481779206859593,-0.000112
1.1488478027867095,0.000155
1.1495176848874598,0.000259
1.15018756698821,0.000206
1.1508574490889603,0.000238
1.1515273311897105,0.000347
1.1521972132904608,0.000477
1.1528670953912112,0.000618
1.1535369774919615,0.000556
1.1542068595927117,0.000362
1.154876741693462,0.000374
1.1555466237942122,0.000367
1.1562165058949625,7.4e-05
1.1568863879957128,-3.7e-05
1.157556270096463,0.000343
1.1582261521972133,0.000658
1.1588960342979635,0.000524
1.1595659163987138,0.000347
1.160235798499464,0.000283
1.1609056806002143,8.6e-05
1.1615755627009645,-7e-05
1.162245444801715,-2.1e-05
1.1629153269024652,9.4e-05
1.1635852090032155,0.000237
1.1642550911039657,0.000191
1.164924973204716,-2e-06
1.1655948553054662,1.1e-05
1.1662647374062165,-0.000194
1.1669346195069668,-0.000717
1.167604501607717,-0.000761
1.1682743837084673,-0.000531
1.1689442658092175,-0.00062
1.1696141479099678,-0.000628
1.170284030010718,-0.000486
1.1709539121114683,-0.000595
1.1716237942122187,-0.000562
1.172293676312969,-0.000281
1.1729635584137192,-0.000488
1.1736334405144695,-0.000954
1.1743033226152197,-0.000914
1.17497320471597,-0.000596
1.1756430868167203,-0.000375
1.1763129689174705,-0.000328
1.1769828510182208,-0.000643
1.177652733118971,-0.000994
1.1783226152197213,-0.000875
1.1789924973204715,-0.000652
1.1796623794212218,-0.000735
1.180332261521972,-0.000776
1.1810021436227225,-0.00064
1.1816720257234727,-0.000628
1.182341907824223,-0.000704
1.1830117899249732,-0.000674
1.1836816720257235,-0.000642
1.1843515541264737,-0.000693
1.185021436227224,-0.000722
1.1856913183279743,-0.000713
1.1863612004287245,-0.00074
1.1870310825294748,-0.000779
1.187700964630225,-0.00079
1.1883708467309753,-0.000807
1.1890407288317255,-0.000787
1.1897106109324758,-0.000694
1.1903804930332262,-0.000677
1.1910503751339765,-0.000764
1.1917202572347267,-0.000769
1.192390139335477,-0.000555
1.1930600214362272,-0.000262
1.1937299035369775,-0.000281
1.1943997856377278,-0.000629
1.195069667738478,-0.000908
1.1957395498392283,-0.000979
1.1964094319399785,-0.000939
1.1970793140407288,-0.000853
1.197749196141479,-0.00078
1.1984190782422293,-0.000725
1.1990889603429795,-0.000597
1.19975884244373,-0.000439
1.2004287245444802,-0.000435
1.2010986066452305,-0.000533
1.2017684887459807,-0.000614
1.202438370846731,-0.00069
1.2031082529474812,-0.000683
1.2037781350482315,-0.000626
1.2044480171489818,-0.00065
1.205117899249732,-0.000688
1.2057877813504823,-0.000676
1.2064576634512325,-0.000684
1.2071275455519828,-0.000714
1.207797427652733,-0.000648
1.2084673097534833,-0.000329
1.2091371918542337,0.000183
1.209807073954984,0.000421
1.2104769560557342,0.000165
1.2111468381564845,-0.000166
1.2118167202572347,-0.000259
1.212486602357985,-0.000379
1.2131564844587353,-0.000769
1.2138263665594855,-0.001013
1.2144962486602358,-0.000733
1.215166130760986,-0.000398
1.2158360128617363,-0.000445
1.2165058949624865,-0.000458
1.2171757770632368,-0.000251
1.217845659163987,-0.000285
1.2185155412647375,-0.000321
1.2191854233654877,5.9e-05
1.219855305466238,0.0003
1.2205251875669882,0.000286
1.2211950696677385,0.000556
1.2218649517684887,0.000765
1.222534833869239,0.000469
1.2232047159699893,0.000245
1.2238745980707395,0.000452
1.2245444801714898,0.000575
1.22521436227224,0.000486
1.2258842443729903,0.000582
1.2265541264737405,0.000723
1.2272240085744908,0.000547
1.2278938906752412,0.000137
1.2285637727759915,-0.000231
1.2292336548767417,-0.000305
1.229903536977492,-5.7e-05
1.2305734190782422,0.000194
1.2312433011789925,0.000173
1.2319131832797428,0.000131
1.232583065380493,0.00033
1.2332529474812433,0.000528
1.2339228295819935,0.000747
1.2345927116827438,0.001112
1.235262593783494,0.001142
1.2359324758842443,0.000819
1.2366023579849947,0.000711
1.237272240085745,0.000766
1.2379421221864952,0.000742
1.2386120042872455,0.00052
1.2392818863879957,-0.000126
1.239951768488746,-0.000639
1.2406216505894962,-0.000264
1.2412915326902465,0.000295
1.2419614147909968,0.000135
1.242631296891747,2.3e-05
1.2433011789924973,0.000581
1.2439710610932475,0.000782
1.2446409431939978,0.000244
1.245310825294748,-9e-05
1.2459807073954985,-0.000178
1.2466505894962487,-0.000385
1.247320471596999,-0.000331
1.2479903536977492,-0.00013
1.2486602357984995,-0.0002
1.2493301178992497,-0.00029
1.25,-0.000222
1.2506698821007503,-0.00024
1.2513397642015005,-0.000353
1.2520096463022508,-0.000394
1.252679528403001,-0.000407
1.2533494105037513,-0.000478
1.2540192926045015,-0.000571
1.2546891747052518,-0.000645
1.2553590568060022,-0.000685
1.2560289389067525,-0.000547
1.2566988210075027,-0.000243
1.257368703108253,-0.000288
1.2580385852090032,-0.000673
1.2587084673097535,-0.000785
1.2593783494105038,-0.000738
1.260048231511254,-0.000647
1.2607181136120043,-0.000208
1.2613879957127545,3e-05
1.2620578778135048,-0.000367
1.262727759914255,-0.00065
1.2633976420150053,-0.000513
1.2640675241157555,-0.00045
1.264737406216506,-0.000537
1.2654072883172562,-0.000545
1.2660771704180065,-0.00042
1.2667470525187567,-0.000362
1.267416934619507,-0.000514
1.2680868167202572,-0.000553
1.2687566988210075,-0.000357
1.2694265809217578,-0.00024
1.270096463022508,-6.7e-05
1.2707663451232583,0.000322
1.2714362272240085,0.000499
1.2721061093247588,0.000424
1.272775991425509,0.000394
1.2734458735262593,0.000129
1.2741157556270097,-0.000468
1.27478563772776,-0.000769
1.2754555198285102,-0.000552
1.2761254019292605,-0.000391
1.2767952840300107,-0.000477
1.277465166130761,-0.000443
1.2781350482315113,-0.000357
1.2788049303322615,-0.000368
1.2794748124330118,-2.4e-05
1.280144694533762,0.000449
1.2808145766345123,-8.6e-05
1.2814844587352625,-0.000848
1.2821543408360128,-0.000271
1.282824222936763,0.000374
1.2834941050375135,4.6e-05
1.2841639871382637,2.9e-05
1.284833869239014,0.000251
1.2855037513397642,-0.000355
1.2861736334405145,-0.000988
1.2868435155412647,-0.000421
1.287513397642015,0.000689
1.2881832797427653,0.000889
1.2888531618435155,0.000415
1.2895230439442658,0.000482
1.290192926045016,0.000793
1.2908628081457663,0.000635
1.2915326902465165,0.000546
1.2922025723472668,0.000797
1.2928724544480172,0.000886
1.2935423365487675,0.00084
1.2942122186495177,0.000974
1.294882100750268,0.001028
1.2955519828510182,0.000751
1.2962218649517685,0.000634
1.2968917470525188,0.000886
1.297561629153269,0.000866
1.2982315112540193,0.00059
1.2989013933547695,0.000775
1.2995712754555198,0.001154
1.30024115755627,0.001035
1.3009110396570203,0.000725
1.3015809217577705,0.000842
1.302250803858521,0.001089
1.3029206859592712,0.000719
1.3035905680600215,7.2e-05
1.3042604501607717,7.6e-05
1.304930332261522,0.000451
1.3056002143622722,0.00059
1.3062700964630225,0.000728
1.3069399785637728,0.001
1.307609860664523,0.001006
1.3082797427652733,0.000704
1.3089496248660235,0.000621
1.3096195069667738,0.000713
1.310289389067524,0.000551
1.3109592711682743,0.000422
1.3116291532690247,0.000542
1.312299035369775,0.000593
1.3129689174705252,0.000561
1.3136387995712755,0.000653
1.3143086816720257,0.000784
1.314978563772776,0.000791
1.3156484458735263,0.000696
1.3163183279742765,0.000566
1.3169882100750268,0.000385
1.317658092175777,0.000247
1.3183279742765273,0.000293
1.3189978563772775,0.000354
1.3196677384780278,0.000348
1.320337620578778,0.000444
1.3210075026795285,0.000527
1.3216773847802787,0.000464
1.322347266881029,0.000397
1.3230171489817792,0.000363
1.3236870310825295,0.00027
1.3243569131832797,0.000214
1.32502679528403,0.000192
1.3256966773847803,-6e-05
1.3263665594855305,-0.000359
1.3270364415862808,-0.000371
1.327706323687031,-0.000407
1.3283762057877813,-0.000627
1.3290460878885315,-0.000613
1.3297159699892818,-0.000284
1.3303858520900322,-0.000128
1.3310557341907825,-0.000199
1.3317256162915327,3.2e-05
1.332395498392283,0.000338
1.3330653804930332,7.6e-05
1.3337352625937835,-0.00023
1.3344051446945338,-9e-06
1.335075026795284,0.000146
1.3357449088960343,3.6e-05
1.3364147909967845,0.000153
1.3370846730975348,0.000404
1.337754555198285,0.000485
1.3384244372990353,0.000572
1.3390943193997855,0.000712
1.339764201500536,0.000542
1.3404340836012862,0.000192
1.3411039657020365,0.000375
1.3417738478027867,0.000962
1.342443729903537,0.001077
1.3431136120042872,0.000829
1.3437834941050375,0.000868
1.3444533762057878,0.000978
1.345123258306538,0.000984
1.3457931404072883,0.001286
1.3464630225080385,0.001523
1.3471329046087888,0.001141
1.347802786709539,0.00069
1.3484726688102893,0.00057
1.3491425509110397,0.000346
1.34981243301179,4e-05
1.3504823151125402,6.8e-05
1.3511521972132905,0.000174
1.3518220793140407,2e-05
1.352491961414791,-0.000113
1.3531618435155413,-0.000102
1.3538317256162915,-0.000188
1.3545016077170418,-0.000341
1.355171489817792,-0.000337
1.3558413719185423,-0.000242
1.3565112540192925,-0.00029
1.3571811361200428,-0.000342
1.357851018220793,-0.000125
1.3585209003215435,0.000124
1.3591907824222937,-7.7e-05
1.359860664523044,-0.000542
1.3605305466237942,-0.00066
1.3612004287245445,-0.000543
1.3618703108252947,-0.000399
1.362540192926045,4e-06
1.3632100750267953,0.000279
1.3638799571275455,0.000181
1.3645498392282958,0.000288
1.365219721329046,0.000526
1.3658896034297963,0.000462
1.3665594855305465,0.000459
1.3672293676312968,0.000695
1.3678992497320472,0.000793
1.3685691318327975,0.000787
1.3692390139335477,0.000826
1.369908896034298,0.000697
1.3705787781350482,0.000451
1.3712486602357985,0.000401
1.3719185423365488,0.000423
1.372588424437299,0.00032
1.3732583065380493,0.000364
1.3739281886387995,0.00058
1.3745980707395498,0.000599
1.3752679528403,0.000491
1.3759378349410503,0.000492
1.3766077170418007,0.000463
1.377277599142551,0.000316
1.3779474812433012,0.000192
1.3786173633440515,0.000103
1.3792872454448017,-4e-05
1.379957127545552,-0.000196
1.3806270096463023,-0.000318
1.3812968917470525,-0.000391
1.3819667738478028,-0.000175
1.382636655948553,0.000366
1.3833065380493033,0.000566
1.3839764201500535,0.000258
1.3846463022508038,6e-05
1.385316184351554,5.8e-05
1.3859860664523045,4e-06
1.3866559485530547,-2.9e-05
1.387325830653805,4.6e-05
1.3879957127545552,0.000144
1.3886655948553055,0.000223
1.3893354769560557,0.000346
1.390005359056806,0.000501
1.3906752411575563,0.000639
1.3913451232583065,0.000777
1.3920150053590568,0.000931
1.392684887459807,0.001043
1.3933547695605573,0.001094
1.3940246516613075,0.001248
1.3946945337620578,0.001495
1.3953644158628082,0.001421
1.3960342979635585,0.000923
1.3967041800643087,0.000514
1.397374062165059,0.000512
1.3980439442658092,0.000709
1.3987138263665595,0.000802
1.3993837084673098,0.000768
1.40005359056806,0.000756
1.4007234726688103,0.000737
1.4013933547695605,0.000625
1.4020632368703108,0.00049
1.402733118971061,0.000376
1.4034030010718113,0.000232
1.4040728831725615,6.5e-05
1.404742765273312,-1e-05
1.4054126473740622,4.5e-05
1.4060825294748125,-9.8e-05
1.4067524115755627,-0.00059
1.407422293676313,-0.000847
1.4080921757770632,-0.000726
1.4087620578778135,-0.000804
1.4094319399785638,-0.000887
1.410101822079314,-0.000345
1.4107717041800643,0.000305
1.4114415862808145,0.000167
1.4121114683815648,-0.000424
1.412781350482315,-0.000728
1.4134512325830653,-0.000689
1.4141211146838157,-0.000399
1.414790996784566,-3.9e-05
1.4154608788853162,-3.4e-05
1.4161307609860665,-0.000377
1.4168006430868167,-0.000583
1.417470525187567,-0.000406
1.4181404072883173,-6e-05
1.4188102893890675,0.000152
1.4194801714898178,0.000298
1.420150053590568,0.000478
1.4208199356913183,0.000398
1.4214898177920685,2.2e-05
1.4221596998928188,-0.000192
1.422829581993569,-5.2e-05
1.4234994640943195,0.000104
1.4241693461950697,6e-05
1.42483922829582,2.8e-05
1.4255091103965702,7.8e-05
1.4261789924973205,3.6e-05
1.4268488745980707,3.8e-05
1.427518756698821,0.000332
1.4281886387995713,0.00065
1.4288585209003215,0.000797
1.4295284030010718,0.000922
1.430198285101822,0.00074
1.4308681672025723,0.000358
1.4315380493033225,0.000379
1.4322079314040728,0.0005
1.4328778135048232,0.000368
1.4335476956055735,0.000353
1.4342175777063237,0.00052
1.434887459807074,0.000581
1.4355573419078242,0.000605
1.4362272240085745,0.000699
1.4368971061093248,0.000623
1.437566988210075,0.000353
1.4382368703108253,0.000283
1.4389067524115755,0.000536
1.4395766345123258,0.000874
1.440246516613076,0.00106
1.4409163987138263,0.001116
1.4415862808145765,0.0013
1.442256162915327,0.001433
1.4429260450160772,0.00107
1.4435959271168275,0.000437
1.4442658092175777,0.000193
1.444935691318328,0.000379
1.4456055734190782,0.00054
1.4462754555198285,0.000546
1.4469453376205788,0.000355
1.447615219721329,0.000129
1.4482851018220793,0.00025
1.4489549839228295,0.00046
1.4496248660235798,0.000286
1.45029474812433,-2.8e-05
1.4509646302250803,-3.9e-05
1.4516345123258307,9.1e-05
1.452304394426581,7.1e-05
1.4529742765273312,-2.3e-05
1.4536441586280815,-9.8e-05
1.4543140407288317,-0.000209
1.454983922829582,-0.000314
1.4556538049303323,-0.000221
1.4563236870310825,3.4e-05
1.4569935691318328,0.000113
1.457663451232583,-3.6e-05
1.4583333333333333,-0.000137
1.4590032154340835,-0.000181
1.4596730975348338,-0.000243
1.460342979635584,-0.000127
1.4610128617363345,0.000121
1.4616827438370847,7.8e-05
1.462352625937835,-0.000179
1.4630225080385852,-0.000153
1.4636923901393355,0.000112
1.4643622722400857,0.000341
1.465032154340836,0.000517
1.4657020364415863,0.000511
1.4663719185423365,0.000328
1.4670418006430868,0.000232
1.467711682743837,0.000213
1.4683815648445873,0.000153
1.4690514469453375,0.000231
1.4697213290460878,0.00052
1.4703912111468382,0.000682
1.4710610932475885,0.000679
1.4717309753483387,0.000852
1.472400857449089,0.001057
1.4730707395498392,0.000962
1.4737406216505895,0.000774
1.4744105037513398,0.000786
1.47508038585209,0.000846
1.4757502679528403,0.000743
1.4764201500535905,0.000521
1.4770900321543408,0.000325
1.477759914255091,0.000266
1.4784297963558413,0.000352
1.4790996784565915,0.000495
1.479769560557342,0.000601
1.4804394426580922,0.000604
1.4811093247588425,0.000505
1.4817792068595927,0.000363
1.482449088960343,0.000323
1.4831189710610932,0.000441
1.4837888531618435,0.000382
1.4844587352625938,7.9e-05
1.485128617363344,2.2e-05
1.4857984994640943,0.00016
1.4864683815648445,5.2e-05
1.4871382636655948,-0.000121
1.487808145766345,-0.000127
1.4884780278670953,-0.000183
1.4891479099678457,-0.000345
1.489817792068596,-0.000436
1.4904876741693462,-0.000448
1.4911575562700965,-0.000498
1.4918274383708467,-0.000658
1.492497320471597,-0.000821
1.4931672025723473,-0.000849
1.4938370846730975,-0.000866
1.4945069667738478,-0.000956
1.495176848874598,-0.000969
1.4958467309753483,-0.000829
1.4965166130760985,-0.000688
1.4971864951768488,-0.000589
1.497856377277599,-0.000267
1.4985262593783495,0.000202
1.4991961414790997,0.000244
1.49986602357985,-8.2e-05
1.5005359056806002,-0.000103
1.5012057877813505,0.000123
1.5018756698821008,0.000135
1.502545551982851,0.000128
1.5032154340836013,0.000324
1.5038853161843515,0.000388
1.5045551982851018,0.00027
1.505225080385852,0.000456
1.5058949624866023,0.00085
1.5065648445873525,0.000899
1.5072347266881028,0.000913
1.5079046087888532,0.001301
1.5085744908896035,0.001561
1.5092443729903537,0.001445
1.509914255091104,0.001362
1.5105841371918542,0.001352
1.5112540192926045,0.001249
1.5119239013933548,0.001171
1.512593783494105,0.001163
1.5132636655948553,0.001159
1.5139335476956055,0.001117
1.5146034297963558,0.000957
1.515273311897106,0.000735
1.5159431939978563,0.000694
1.5166130760986067,0.000831
1.517282958199357,0.000778
1.5179528403001072,0.000481
1.5186227224008575,0.000309
1.5192926045016077,0.0003
1.519962486602358,0.000202
1.5206323687031083,8e-05
1.5213022508038585,8.5e-05
1.5219721329046088,-1.9e-05
1.522642015005359,-0.000343
1.5233118971061093,-0.000418
1.5239817792068595,-0.000169
1.5246516613076098,-0.000194
1.52532154340836,-0.000469
1.5259914255091105,-0.00048
1.5266613076098607,-0.000352
1.527331189710611,-0.000395
1.5280010718113612,-0.000525
1.5286709539121115,-0.000665
1.5293408360128617,-0.000753
1.530010718113612,-0.000707
1.5306806002143623,-0.000726
1.5313504823151125,-0.000892
1.5320203644158628,-0.000883
1.532690246516613,-0.000679
1.5333601286173633,-0.00063
1.5340300107181135,-0.000662
1.5346998928188638,-0.000464
1.5353697749196142,-0.000252
1.5360396570203645,-0.000309
1.5367095391211147,-0.000372
1.537379421221865,-0.000217
1.5380493033226152,-4.9e-05
1.5387191854233655,5.7e-05
1.5393890675241158,0.000186
1.540058949624866,0.000162
1.5407288317256163,-5.9e-05
1.5413987138263665,-0.000182
1.5420685959271168,-0.000137
1.542738478027867,-5e-05
1.5434083601286173,0.000142
1.5440782422293675,0.000388
1.544748124330118,0.000419
1.5454180064308682,0.000279
1.5460878885316185,0.000218
1.5467577706323687,0.000176
1.547427652733119,7.3e-05
1.5480975348338692,7.9e-05
1.5487674169346195,0.000196
1.5494372990353698,0.000216
1.55010718113612,0.000198
1.5507770632368703,0.000324
1.5514469453376205,0.000421
1.5521168274383708,0.000306
1.552786709539121,0.00024
1.5534565916398713,0.000346
1.5541264737406217,0.000352
1.554796355841372,0.000235
1.5554662379421222,0.000218
1.5561361200428725,0.000253
1.5568060021436227,0.00022
1.557475884244373,0.000208
1.5581457663451233,0.000168
1.5588156484458735,-5.5e-05
1.5594855305466238,-0.000265
1.560155412647374,-0.000275
1.5608252947481243,-0.000235
1.5614951768488745,-0.000185
1.5621650589496248,-0.000116
1.562834941050375,-0.000202
1.5635048231511255,-0.000382
1.5641747052518757,-0.00044
1.564844587352626,-0.000445
1.5655144694533762,-0.00047
1.5661843515541265,-0.000403
1.5668542336548767,-0.000305
1.567524115755627,-0.000309
1.5681939978563773,-0.000285
1.5688638799571275,-0.000132
1.5695337620578778,-6.5e-05
1.570203644158628,-0.00017
1.5708735262593783,-0.000164
1.5715434083601285,4.1e-05
1.5722132904608788,0.000175
1.5728831725616292,9.5e-05
1.5735530546623795,-1.1e-05
1.5742229367631297,6.5e-05
1.57489281886388,0.000162
1.5755627009646302,9.5e-05
1.5762325830653805,2.7e-05
1.5769024651661308,5.9e-05
1.577572347266881,0.000102
1.5782422293676313,0.000152
1.5789121114683815,0.000239
1.5795819935691318,0.00031
1.580251875669882,0.000312
1.5809217577706323,0.000295
1.5815916398713825,0.000326
1.582261521972133,0.000392
1.5829314040728832,0.000466
1.5836012861736335,0.000547
1.5842711682743837,0.000582
1.584941050375134,0.000534
1.5856109324758842,0.000512
1.5862808145766345,0.000527
1.5869506966773848,0.000419
1.587620578778135,0.000244
1.5882904608788853,0.000207
1.5889603429796355,0.00024
1.5896302250803858,0.000176
1.590300107181136,0.000101
1.5909699892818863,0.000133
1.5916398713826367,0.00017
1.592309753483387,0.000146
1.5929796355841372,0.000165
1.5936495176848875,0.000221
1.5943193997856377,0.000227
1.594989281886388,0.000215
1.5956591639871383,0.000225
1.5963290460878885,0.000214
1.5969989281886388,0.000141
1.597668810289389,5.6e-05
1.5983386923901393,5.8e-05
1.5990085744908895,7.5e-05
1.5996784565916398,-1.6e-05
1.60034833869239,-5e-05
1.6010182207931405,0.000153
1.6016881028938907,0.00033
1.602357984994641,0.000268
1.6030278670953912,0.000205
1.6036977491961415,0.000277
1.6043676312968917,0.000291
1.605037513397642,0.000164
1.6057073954983923,0.000101
1.6063772775991425,0.000195
1.6070471596998928,0.000283
1.607717041800643,0.000289
1.6083869239013933,0.000275
1.6090568060021435,0.000271
1.6097266881028938,0.000236
1.6103965702036442,0.000175
1.6110664523043945,0.000193
1.6117363344051447,0.000269
1.612406216505895,0.000256
1.6130760986066452,0.000169
1.6137459807073955,0.000127
1.6144158628081458,0.000108
1.615085744908896,1.4e-05
1.6157556270096463,-7.8e-05
1.6164255091103965,-7.9e-05
1.6170953912111468,-0.000107
1.617765273311897,-0.000166
1.6184351554126473,-0.000154
1.6191050375133975,-0.000191
1.619774919614148,-0.000294
1.6204448017148982,-0.00026
1.6211146838156485,-0.000196
1.6217845659163987,-0.00026
1.622454448017149,-0.000277
1.6231243301178992,-0.000235
1.6237942122186495,-0.000291
1.6244640943193998,-0.000338
1.62513397642015,-0.000316
1.6258038585209003,-0.000348
1.6264737406216505,-0.000369
1.6271436227224008,-0.00025
1.627813504823151,-9.5e-05
1.6284833869239013,-3.5e-05
1.6291532690246517,-3.5e-05
1.629823151125402,-4.7e-05
1.6304930332261522,-9.3e-05
1.6311629153269025,-0.000137
1.6318327974276527,-0.000112
1.632502679528403,-4.5e-05
1.6331725616291533,2e-05
1.6338424437299035,7.8e-05
1.6345123258306538,0.000144
1.635182207931404,0.000212
1.6358520900321543,0.000252
1.6365219721329045,0.000263
1.6371918542336548,0.000282
1.637861736334405,0.000322
1.6385316184351555,0.00035
1.6392015005359057,0.000342
1.639871382636656,0.000309
1.6405412647374062,0.000284
1.6412111468381565,0.000261
1.6418810289389068,0.000177
1.642550911039657,4.9e-05
1.6432207931404073,2.9e-05
1.6438906752411575,0.000156
1.6445605573419078,0.000234
1.645230439442658,0.000142
1.6459003215434083,4e-06
1.6465702036441585,-3.3e-05
1.647240085744909,5.2e-05
1.6479099678456592,0.000143
1.6485798499464095,8.9e-05
1.6492497320471597,-5.1e-05
1.64991961414791,-9.7e-05
1.6505894962486602,-7.9e-05
1.6512593783494105,-0.000129
1.6519292604501608,-0.000189
1.652599142550911,-0.000162
1.6532690246516613,-0.000112
1.6539389067524115,-9e-05
1.6546087888531618,-2.9e-05
1.655278670953912,6.3e-05
1.6559485530546623,0.000107
1.6566184351554127,0.000122
1.657288317256163,0.000116
1.6579581993569132,5.1e-05
1.6586280814576635,2.8e-05
1.6592979635584137,9.9e-05
1.659967845659164,0.000148
1.6606377277599143,0.000146
1.6613076098606645,0.00013
1.6619774919614148,9.9e-05
1.662647374062165,0.000104
1.6633172561629153,0.000169
1.6639871382636655,0.000253
1.6646570203644158,0.0003
1.665326902465166,0.000253
1.6659967845659165,0.00016
1.6666666666666667,0.000173
1.667336548767417,0.0003
1.6680064308681672,0.000371
1.6686763129689175,0.000337
1.6693461950696677,0.000271
1.670016077170418,0.000195
1.6706859592711683,0.000123
1.6713558413719185,7e-05
1.6720257234726688,1.3e-05
1.672695605573419,-4.3e-05
1.6733654876741693,-4.2e-05
1.6740353697749195,1.3e-05
1.6747052518756698,1.1e-05
1.6753751339764202,-3.8e-05
1.6760450160771705,-2.4e-05
1.6767148981779207,-2e-06
1.677384780278671,-3.6e-05
1.6780546623794212,-4e-05
1.6787245444801715,-2.5e-05
1.6793944265809218,-4.1e-05
1.680064308681672,-1.9e-05
1.6807341907824223,-2e-06
1.6814040728831725,-0.000104
1.6820739549839228,-0.000203
1.682743837084673,-0.000181
1.6834137191854233,-0.000182
1.6840836012861735,-0.000252
1.684753483386924,-0.000228
1.6854233654876742,-0.000126
1.6860932475884245,-9.7e-05
1.6867631296891747,-0.000133
1.687433011789925,-0.000157
1.6881028938906752,-0.000145
1.6887727759914255,-0.000127
1.6894426580921758,-0.000139
1.690112540192926,-0.000142
1.6907824222936763,-0.000116
1.6914523043944265,-0.000135
1.6921221864951768,-0.000214
1.692792068595927,-0.000267
1.6934619506966773,-0.000256
1.6941318327974277,-0.000191
1.694801714898178,-0.000118
1.6954715969989282,-0.000139
1.6961414790996785,-0.000208
1.6968113612004287,-0.000155
1.697481243301179,-5.3e-05
1.6981511254019293,-0.000107
1.6988210075026795,-0.000235
1.6994908896034298,-0.000262
1.70016077170418,-0.000231
1.7008306538049303,-0.000246
1.7015005359056805,-0.000304
1.7021704180064308,-0.000333
1.702840300107181,-0.000295
1.7035101822079315,-0.000245
1.7041800643086817,-0.000197
1.704849946409432,-0.000122
1.7055198285101822,-8.9e-05
1.7061897106109325,-0.000118
1.7068595927116827,-0.000108
1.707529474812433,-4.2e-05
1.7081993569131833,8e-06
1.7088692390139335,4.7e-05
1.7095391211146838,8.8e-05
1.710209003215434,7.7e-05
1.7108788853161843,2.6e-05
1.7115487674169345,1.9e-05
1.7122186495176848,5.5e-05
1.7128885316184352,4.9e-05
1.7135584137191855,2.7e-05
1.7142282958199357,8.9e-05
1.714898177920686,0.000178
1.7155680600214362,0.000181
1.7162379421221865,0.000173
1.7169078242229368,0.000243
1.717577706323687,0.000301
1.7182475884244373,0.0003
1.7189174705251875,0.000308
1.7195873526259378,0.000323
1.720257234726688,0.000302
1.7209271168274383,0.000267
1.7215969989281885,0.000251
1.722266881028939,0.000239
1.7229367631296892,0.000202
1.7236066452304395,0.000166
1.7242765273311897,0.000164
1.72494640943194,0.000153
1.7256162915326902,9.8e-05
1.7262861736334405,4.6e-05
1.7269560557341908,2.3e-05
1.727625937834941,-8e-06
1.7282958199356913,-4.6e-05
1.7289657020364415,-4.9e-05
1.7296355841371918,-3.6e-05
1.730305466237942,-5.5e-05
1.7309753483386923,-9.7e-05
1.7316452304394427,-0.000131
1.732315112540193,-0.000152
1.7329849946409432,-0.000159
1.7336548767416935,-0.000184
1.7343247588424437,-0.000222
1.734994640943194,-0.000217
1.7356645230439443,-0.000194
1.7363344051446945,-0.000183
1.7370042872454448,-0.000144
1.737674169346195,-8.7e-05
1.7383440514469453,-5e-05
1.7390139335476955,-2.8e-05
1.7396838156484458,-1.8e-05
1.740353697749196,-3.7e-05
1.7410235798499465,-7.3e-05
1.7416934619506967,-6.8e-05
1.742363344051447,-3e-06
1.7430332261521972,4.2e-05
1.7437031082529475,2.2e-05
1.7443729903536977,2.5e-05
1.745042872454448,8.8e-05
1.7457127545551983,0.000115
1.7463826366559485,0.000101
1.7470525187566988,0.000129
1.747722400857449,0.000179
1.7483922829581993,0.000202
1.7490621650589495,0.000221
1.7497320471596998,0.000252
1.7504019292604502,0.000263
1.7510718113612005,0.000246
1.7517416934619507,0.000238
1.752411575562701,0.000224
1.7530814576634512,0.000173
1.7537513397642015,0.00014
1.7544212218649518,0.000161
1.755091103965702,0.000162
1.7557609860664523,0.000113
1.7564308681672025,7.3e-05
1.7571007502679528,6.2e-05
1.757770632368703,5.1e-05
1.7584405144694533,4e-05
1.7591103965702035,2.8e-05
1.759780278670954,2e-06
1.7604501607717042,-1.7e-05
1.7611200428724545,-2.7e-05
1.7617899249732047,-4.3e-05
1.762459807073955,-5.7e-05
1.7631296891747053,-6.6e-05
1.7637995712754555,-8.4e-05
1.7644694533762058,-0.000101
1.765139335476956,-0.000111
1.7658092175777063,-0.000129
1.7664790996784565,-0.000155
1.7671489817792068,-0.000145
1.767818863879957,-9e-05
1.7684887459807073,-5.7e-05
1.7691586280814577,-7.2e-05
1.769828510182208,-6.9e-05
1.7704983922829582,-5e-05
1.7711682743837085,-6.3e-05
1.7718381564844587,-8.3e-05
1.772508038585209,-8.8e-05
1.7731779206859593,-0.000102
1.7738478027867095,-0.000112
1.7745176848874598,-7.8e-05
1.77518756698821,-4.8e-05
1.7758574490889603,-7e-05
1.7765273311897105,-7e-05
1.7771972132904608,-1.7e-05
1.777867095391211,-9e-06
1.7785369774919615,-4.1e-05
1.7792068595927117,-2.8e-05
1.779876741693462,-5e-06
1.7805466237942122,-2.3e-05
1.7812165058949625,-4.1e-05
1.7818863879957128,-5.1e-05
1.782556270096463,-7.4e-05
1.7832261521972133,-9.7e-05
1.7838960342979635,-9.6e-05
1.7845659163987138,-7.5e-05
1.785235798499464,-8.6e-05
1.7859056806002143,-0.000146
1.7865755627009645,-0.000165
1.787245444801715,-0.000117
1.7879153269024652,-8.7e-05
1.7885852090032155,-9.5e-05
1.7892550911039657,-9.4e-05
1.789924973204716,-8.7e-05
1.7905948553054662,-9.1e-05
1.7912647374062165,-8.7e-05
1.7919346195069668,-7.7e-05
1.792604501607717,-9.5e-05
1.7932743837084673,-0.000129
1.7939442658092175,-0.000139
1.7946141479099678,-9.4e-05
1.795284030010718,-1.4e-05
1.7959539121114683,2.4e-05
1.7966237942122187,1.5e-05
1.797293676312969,2e-05
1.7979635584137192,1.3e-05
1.7986334405144695,-9e-06
1.7993033226152197,1.3e-05
1.79997320471597,6.5e-05
1.8006430868167203,9e-05
1.8013129689174705,9.1e-05
1.8019828510182208,9.1e-05
1.802652733118971,8.5e-05
1.8033226152197213,6.9e-05
1.8039924973204715,6.4e-05
1.8046623794212218,9.4e-05
1.805332261521972,0.000131
1.8060021436227225,0.000128
1.8066720257234727,0.000109
1.807341907824223,0.000125
1.8080117899249732,0.00014
1.8086816720257235,0.000133
1.8093515541264737,0.00014
1.810021436227224,0.000142
1.8106913183279743,9.2e-05
1.8113612004287245,2.9e-05
1.8120310825294748,1.7e-05
1.812700964630225,2.5e-05
1.8133708467309753,-2.3e-05
1.8140407288317255,-9.4e-05
1.8147106109324758,-6.3e-05
1.8153804930332262,5.1e-05
1.8160503751339765,7.5e-05
1.8167202572347267,-5e-06
1.817390139335477,-6.6e-05
1.8180600214362272,-8.1e-05
1.8187299035369775,-8.3e-05
1.8193997856377278,-6.7e-05
1.820069667738478,-6.9e-05
1.8207395498392283,-0.000119
1.8214094319399785,-0.000144
1.8220793140407288,-0.000107
1.822749196141479,-9e-05
1.8234190782422293,-0.000107
1.8240889603429795,-8.9e-05
1.82475884244373,-5.8e-05
1.8254287245444802,-5.7e-05
1.8260986066452305,-5.5e-05
1.8267684887459807,-4e-05
1.827438370846731,-3.4e-05
1.8281082529474812,-3.7e-05
1.8287781350482315,-4.4e-05
1.8294480171489818,-4.2e-05
1.830117899249732,-2.7e-05
1.8307877813504823,-2.7e-05
1.8314576634512325,-4.3e-05
1.8321275455519828,1.2e-05
1.832797427652733,0.000124
1.8334673097534833,0.000114
1.8341371918542337,1.6e-05
1.834807073954984,2.6e-05
1.8354769560557342,8.1e-05
1.8361468381564845,5.7e-05
1.8368167202572347,4.9e-05
1.837486602357985,8.3e-05
1.8381564844587353,6.2e-05
1.8388263665594855,2.6e-05
1.8394962486602358,6e-05
1.840166130760986,0.000109
1.8408360128617363,0.000116
1.8415058949624865,0.000116
1.8421757770632368,0.000113
1.842845659163987,7e-05
1.8435155412647375,3.2e-05
1.8441854233654877,4.6e-05
1.844855305466238,7.6e-05
1.8455251875669882,7.5e-05
1.8461950696677385,3.7e-05
1.8468649517684887,-5e-06
1.847534833869239,-1.6e-05
1.8482047159699893,-1e-06
1.8488745980707395,1.9e-05
1.8495444801714898,3.7e-05
1.85021436227224,4.4e-05
1.8508842443729903,2.7e-05
1.8515541264737405,-1.2e-05
1.8522240085744908,-5.2e-05
1.8528938906752412,-8.7e-05
1.8535637727759915,-0.000118
1.8542336548767417,-0.000122
1.854903536977492,-9.8e-05
1.8555734190782422,-7.9e-05
1.8562433011789925,-8.1e-05
1.8569131832797428,-9.1e-05
1.857583065380493,-9.6e-05
1.8582529474812433,-9.4e-05
1.8589228295819935,-7.6e-05
1.8595927116827438,-4.8e-05
1.860262593783494,-5.2e-05
1.8609324758842443,-8.5e-05
1.8616023579849945,-0.000108
1.862272240085745,-0.000127
1.8629421221864952,-0.000159
1.8636120042872455,-0.000166
1.8642818863879957,-0.000143
1.864951768488746,-0.00013
1.8656216505894962,-0.000131
1.8662915326902465,-0.000133
1.8669614147909968,-0.000139
1.867631296891747,-0.000146
1.8683011789924973,-0.000142
1.8689710610932475,-0.00011
1.8696409431939978,-6.7e-05
1.870310825294748,-6.1e-05
1.8709807073954983,-0.000102
1.8716505894962487,-0.000134
1.872320471596999,-0.000124
1.8729903536977492,-0.000113
1.8736602357984995,-0.000141
1.8743301178992497,-0.000177
1.875,-0.000177
1.8756698821007503,-0.000141
1.8763397642015005,-0.000107
1.8770096463022508,-9.1e-05
1.877679528403001,-8.4e-05
1.8783494105037513,-8.2e-05
1.8790192926045015,-8.4e-05
1.8796891747052518,-8.8e-05
1.880359056806002,-9.5e-05
1.8810289389067525,-0.000104
1.8816988210075027,-0.000119
1.882368703108253,-0.00013
1.8830385852090032,-0.000131
1.8837084673097535,-0.000138
1.8843783494105038,-0.000148
1.885048231511254,-0.000122
1.8857181136120043,-7.9e-05
1.8863879957127545,-6.3e-05
1.8870578778135048,-4.1e-05
1.887727759914255,-1.4e-05
1.8883976420150053,-5e-05
1.8890675241157555,-0.000119
1.8897374062165058,-0.000118
1.8904072883172562,-5.6e-05
1.8910771704180065,-3.8e-05
1.8917470525187567,-7.7e-05
1.892416934619507,-0.000106
1.8930868167202572,-0.000121
1.8937566988210075,-0.000145
1.8944265809217578,-0.000162
1.895096463022508,-0.000153
1.8957663451232583,-0.000126
1.8964362272240085,-0.000116
1.8971061093247588,-0.000133
1.897775991425509,-0.000138
1.8984458735262593,-0.000128
1.8991157556270095,-0.000127
1.89978563772776,-0.000111
1.9004555198285102,-7.3e-05
1.9011254019292605,-6.6e-05
1.9017952840300107,-8.4e-05
1.902465166130761,-8.2e-05
1.9031350482315113,-8.7e-05
1.9038049303322615,-0.000123
1.9044748124330118,-0.000156
1.905144694533762,-0.000152
1.9058145766345123,-0.000133
1.9064844587352625,-0.000146
1.9071543408360128,-0.00016
1.907824222936763,-0.000113
1.9084941050375133,-6.6e-05
1.9091639871382637,-7.4e-05
1.909833869239014,-7.9e-05
1.9105037513397642,-3.9e-05
1.9111736334405145,-5e-06
1.9118435155412647,-4.4e-05
1.912513397642015,-0.000119
1.9131832797427653,-0.000127
1.9138531618435155,-8.8e-05
1.9145230439442658,-9.9e-05
1.915192926045016,-0.000119
1.9158628081457663,-8e-05
1.9165326902465165,-5.4e-05
1.9172025723472668,-7.6e-05
1.917872454448017,-7.7e-05
1.9185423365487675,-5.3e-05
1.9192122186495177,-4.3e-05
1.919882100750268,-3.9e-05
1.9205519828510182,-2.2e-05
1.9212218649517685,-8e-06
1.9218917470525188,-1.8e-05
1.922561629153269,-5.4e-05
1.9232315112540193,-7.8e-05
1.9239013933547695,-6.2e-05
1.9245712754555198,-4.1e-05
1.92524115755627,-2.8e-05
1.9259110396570203,-1.2e-05
1.9265809217577705,-2e-05
1.927250803858521,-6.7e-05
1.9279206859592712,-0.000102
1.9285905680600215,-8e-05
1.9292604501607717,-3.8e-05
1.929930332261522,-1.2e-05
1.9306002143622722,2.5e-05
1.9312700964630225,5.4e-05
1.9319399785637728,2.2e-05
1.932609860664523,-1.4e-05
1.9332797427652733,5e-06
1.9339496248660235,-6e-06
1.9346195069667738,-8e-05
1.935289389067524,-0.000108
1.9359592711682743,-8.3e-05
1.9366291532690247,-0.000113
1.937299035369775,-0.000162
1.9379689174705252,-0.000127
1.9386387995712755,-5.2e-05
1.9393086816720257,-2e-05
1.939978563772776,-2.9e-05
1.9406484458735263,-4.6e-05
1.9413183279742765,-4.5e-05
1.9419882100750268,-1e-05
1.942658092175777,1.8e-05
1.9433279742765273,6e-06
1.9439978563772775,-3.9e-05
1.9446677384780278,-0.000107
1.945337620578778,-0.000143
1.9460075026795285,-0.000116
1.9466773847802787,-8.9e-05
1.947347266881029,-8.4e-05
1.9480171489817792,-6.4e-05
1.9486870310825295,-5.7e-05
1.9493569131832797,-7.3e-05
1.95002679528403,-6.9e-05
1.9506966773847803,-5e-05
1.9513665594855305,-5.9e-05
1.9520364415862808,-6.5e-05
1.952706323687031,-3.1e-05
1.9533762057877813,-2.3e-05
1.9540460878885315,-4.7e-05
1.9547159699892818,-3.7e-05
1.9553858520900322,-2.4e-05
1.9560557341907825,-4.8e-05
1.9567256162915327,-6.9e-05
1.957395498392283,-6.1e-05
1.9580653804930332,-4.5e-05
1.9587352625937835,-6.5e-05
1.9594051446945338,-9.9e-05
1.960075026795284,-6.4e-05
1.9607449088960343,9e-06
1.9614147909967845,3e-06
1.9620846730975348,-6.1e-05
1.962754555198285,-9.3e-05
1.9634244372990353,-9.6e-05
1.9640943193997855,-0.000103
1.964764201500536,-0.000118
1.9654340836012862,-0.000106
1.9661039657020365,-6.3e-05
1.9667738478027867,-7.2e-05
1.967443729903537,-0.00013
1.9681136120042872,-0.000125
1.9687834941050375,-8.1e-05
1.9694533762057878,-7.6e-05
1.970123258306538,-6.4e-05
1.9707931404072883,-2.8e-05
1.9714630225080385,-2.7e-05
1.9721329046087888,-4.9e-05
1.972802786709539,-4.6e-05
1.9734726688102893,-3.8e-05
1.9741425509110397,-5.1e-05
1.97481243301179,-6.6e-05
1.9754823151125402,-6.8e-05
1.9761521972132905,-6.2e-05
1.9768220793140407,-5.7e-05
1.977491961414791,-6.4e-05
1.9781618435155413,-6.3e-05
1.9788317256162915,-4.3e-05
1.9795016077170418,-2.4e-05
1.980171489817792,-2.3e-05
1.9808413719185423,-2.8e-05
1.9815112540192925,-2.6e-05
1.9821811361200428,-3e-05
1.982851018220793,-5.2e-05
1.9835209003215435,-6.4e-05
1.9841907824222937,-6.6e-05
1.984860664523044,-9.6e-05
1.9855305466237942,-0.000126
1.9862004287245445,-0.000106
1.9868703108252947,-8.2e-05
1.987540192926045,-0.000106
1.9882100750267953,-0.000126
1.9888799571275455,-0.000108
1.9895498392282958,-0.000105
1.990219721329046,-0.000113
1.9908896034297963,-9.5e-05
1.9915594855305465,-9.3e-05
1.9922293676312968,-0.000128
1.9928992497320472,-0.000151
1.9935691318327975,-0.000143
1.9942390139335477,-0.000149
1.994908896034298,-0.000196
1.9955787781350482,-0.000225
1.9962486602357985,-0.000195
1.9969185423365488,-0.000179
1.997588424437299,-0.000219
1.9982583065380493,-0.000219
1.9989281886387995,-0.000158
1.9995980707395498,-0.000129
2.0002679528403,-0.000138
2.0009378349410505,-0.000126
2.0016077170418005,-0.000136
2.002277599142551,-0.000198
2.002947481243301,-0.000228
2.0036173633440515,-0.000211
2.0042872454448015,-0.000199
2.004957127545552,-0.000192
2.005627009646302,-0.00019
2.0062968917470525,-0.000195
2.006966773847803,-0.00019
2.007636655948553,-0.000181
2.0083065380493035,-0.000166
2.0089764201500535,-0.000143
2.009646302250804,-0.000134
2.010316184351554,-0.000129
2.0109860664523045,-0.000107
2.0116559485530545,-9.7e-05
2.012325830653805,-0.000125
2.012995712754555,-0.000152
2.0136655948553055,-0.000149
2.0143354769560555,-0.000148
2.015005359056806,-0.000173
2.015675241157556,-0.000175
2.0163451232583065,-0.000131
2.017015005359057,-0.000121
2.017684887459807,-0.000166
2.0183547695605575,-0.000169
2.0190246516613075,-0.00013
2.019694533762058,-0.000123
2.020364415862808,-0.000111
2.0210342979635585,-5.4e-05
2.0217041800643085,-2.9e-05
2.022374062165059,-8.8e-05
2.023043944265809,-0.000142
2.0237138263665595,-0.000117
2.0243837084673095,-9.7e-05
2.02505359056806,-0.000151
2.0257234726688105,-0.000208
2.0263933547695605,-0.000206
2.027063236870311,-0.000179
2.027733118971061,-0.000182
2.0284030010718115,-0.000218
2.0290728831725615,-0.000239
2.029742765273312,-0.000174
2.030412647374062,-5.7e-05
2.0310825294748125,-1.5e-05
2.0317524115755625,-6.1e-05
2.032422293676313,-0.000111
2.033092175777063,-0.000158
2.0337620578778135,-0.00021
2.0344319399785635,-0.000222
2.035101822079314,-0.000192
2.0357717041800645,-0.00017
2.0364415862808145,-0.000181
2.037111468381565,-0.000194
2.037781350482315,-0.000193
2.0384512325830655,-0.000181
2.0391211146838155,-0.000145
2.039790996784566,-0.0001
2.040460878885316,-8.2e-05
2.0411307609860665,-6.3e-05
2.0418006430868165,-2.9e-05
2.042470525187567,-4.2e-05
2.043140407288317,-0.000104
2.0438102893890675,-0.000126
2.044480171489818,-0.000108
2.045150053590568,-0.000103
2.0458199356913185,-8.1e-05
2.0464898177920685,-5.7e-05
2.047159699892819,-9.4e-05
2.047829581993569,-0.000121
2.0484994640943195,-7.8e-05
2.0491693461950695,-7.6e-05
2.04983922829582,-0.000116
2.05050911039657,-6.8e-05
2.0511789924973205,1.2e-05
2.0518488745980705,4e-06
2.052518756698821,-5e-05
2.053188638799571,-8.1e-05
2.0538585209003215,-8.4e-05
2.054528403001072,-9.1e-05
2.055198285101822,-0.000121
2.0558681672025725,-0.000109
2.0565380493033225,-3.3e-05
2.057207931404073,-8e-06
2.057877813504823,-6.4e-05
2.0585476956055735,-9e-05
2.0592175777063235,-5.4e-05
2.059887459807074,-2.3e-05
2.060557341907824,-2.6e-05
2.0612272240085745,-5.1e-05
2.0618971061093245,-8.4e-05
2.062566988210075,-8.7e-05
2.0632368703108255,-4e-05
2.0639067524115755,8e-06
2.064576634512326,1e-06
2.065246516613076,-3.8e-05
2.0659163987138265,-5.7e-05
2.0665862808145765,-6.2e-05
2.067256162915327,-7.7e-05
2.067926045016077,-8e-05
2.0685959271168275,-6.2e-05
2.0692658092175775,-5.7e-05
2.069935691318328,-5.5e-05
2.070605573419078,-2.5e-05
2.0712754555198285,3e-06
2.071945337620579,-1.2e-05
2.072615219721329,-3.9e-05
2.0732851018220795,-3.9e-05
2.0739549839228295,-4e-05
2.07462486602358,-7.3e-05
2.07529474812433,-0.000106
2.0759646302250805,-0.000106
2.0766345123258305,-8.1e-05
2.077304394426581,-6e-05
2.077974276527331,-5.5e-05
2.0786441586280815,-5.9e-05
2.0793140407288315,-5.9e-05
2.079983922829582,-5e-05
2.080653804930332,-3.6e-05
2.0813236870310825,-3.7e-05
2.081993569131833,-5.4e-05
2.082663451232583,-6.7e-05
2.0833333333333335,-7.8e-05
2.0840032154340835,-8.6e-05
2.084673097534834,-8.6e-05
2.085342979635584,-9.4e-05
2.0860128617363345,-0.000116
2.0866827438370845,-0.000114
2.087352625937835,-7.8e-05
2.088022508038585,-6.6e-05
2.0886923901393355,-0.000107
2.0893622722400855,-0.000134
2.090032154340836,-8.8e-05
2.0907020364415865,-1e-05
2.0913719185423365,6e-06
2.092041800643087,-5e-05
2.092711682743837,-8.4e-05
2.0933815648445875,-7.9e-05
2.0940514469453375,-8.5e-05
2.094721329046088,-8.9e-05
2.095391211146838,-9.3e-05
2.0960610932475885,-0.000108
2.0967309753483385,-8.7e-05
2.097400857449089,-5.3e-05
2.098070739549839,-7.5e-05
2.0987406216505895,-0.000111
2.0994105037513395,-0.000115
2.10008038585209,-0.000129
2.1007502679528405,-0.000156
2.1014201500535905,-0.00013
2.102090032154341,-7.2e-05
2.102759914255091,-0.000114
2.1034297963558415,-0.00022
2.1040996784565915,-0.000192
2.104769560557342,-9.3e-05
2.105439442658092,-0.000126
2.1061093247588425,-0.000204
2.1067792068595925,-0.00014
2.107449088960343,-1.7e-05
2.108118971061093,-2.1e-05
2.1087888531618435,-0.000117
2.109458735262594,-0.000152
2.110128617363344,-0.00012
2.1107984994640945,-0.00011
2.1114683815648445,-0.000137
2.112138263665595,-0.000141
2.112808145766345,-0.000101
2.1134780278670955,-8.4e-05
2.1141479099678455,-0.000125
2.114817792068596,-0.000154
2.115487674169346,-0.000115
2.1161575562700965,-4.4e-05
2.1168274383708465,-2.7e-05
2.117497320471597,-9.3e-05
2.118167202572347,-0.000152
2.1188370846730975,-0.000151
2.119506966773848,-0.000161
2.120176848874598,-0.000161
2.1208467309753485,-4.8e-05
2.1215166130760985,4.5e-05
2.122186495176849,-1.9e-05
2.122856377277599,-7.9e-05
2.1235262593783495,-2.6e-05
2.1241961414790995,-9e-06
2.12486602357985,-6.8e-05
2.1255359056806,-0.000111
2.1262057877813505,-0.000131
2.1268756698821005,-0.000134
2.127545551982851,-8.7e-05
2.1282154340836015,-4.9e-05
2.1288853161843515,-7.4e-05
2.129555198285102,-0.000123
2.130225080385852,-0.00013
2.1308949624866025,-8e-05
2.1315648445873525,-3.2e-05
2.132234726688103,-7e-06
2.132904608788853,2e-06
2.1335744908896035,-4.8e-05
2.1342443729903535,-0.000131
2.134914255091104,-0.000153
2.135584137191854,-0.000117
2.1362540192926045,-9.9e-05
2.1369239013933545,-9.8e-05
2.137593783494105,-8.5e-05
2.1382636655948555,-8.2e-05
2.1389335476956055,-9.6e-05
2.139603429796356,-0.000118
2.140273311897106,-0.000112
2.1409431939978565,-4.9e-05
2.1416130760986065,-0.0
2.142282958199357,-3.1e-05
2.142952840300107,-8.7e-05
2.1436227224008575,-7.5e-05
2.1442926045016075,-3.9e-05
2.144962486602358,-0.000104
2.145632368703108,-0.000208
2.1463022508038585,-0.000194
2.146972132904609,-0.00012
2.147642015005359,-0.000113
2.1483118971061095,-0.000155
2.1489817792068595,-0.00019
2.14965166130761,-0.000204
2.15032154340836,-0.000188
2.1509914255091105,-0.000138
2.1516613076098605,-7.3e-05
2.152331189710611,-6.7e-05
2.153001071811361,-0.000138
2.1536709539121115,-0.00017
2.1543408360128615,-0.000156
2.155010718113612,-0.000201
2.155680600214362,-0.000238
2.1563504823151125,-0.000198
2.157020364415863,-0.000185
2.157690246516613,-0.000211
2.1583601286173635,-0.000218
2.1590300107181135,-0.000202
2.159699892818864,-0.000157
2.160369774919614,-0.000135
2.1610396570203645,-0.000185
2.1617095391211145,-0.000223
2.162379421221865,-0.000204
2.163049303322615,-0.000209
2.1637191854233655,-0.000259
2.1643890675241155,-0.000254
2.165058949624866,-0.000169
2.1657288317256165,-0.000105
2.1663987138263665,-0.000112
2.167068595927117,-0.0001
2.167738478027867,-6.3e-05
2.1684083601286175,-8.3e-05
2.1690782422293675,-0.00011
2.169748124330118,-9.6e-05
2.170418006430868,-8.6e-05
2.1710878885316185,-8.4e-05
2.1717577706323685,-6.4e-05
2.172427652733119,-4.5e-05
2.173097534833869,-5.9e-05
2.1737674169346195,-9.3e-05
2.1744372990353695,-0.000119
2.17510718113612,-0.00011
2.1757770632368705,-3.8e-05
2.1764469453376205,2.9e-05
2.177116827438371,3e-06
2.177786709539121,-6.4e-05
2.1784565916398715,-9.7e-05
2.1791264737406215,-0.000118
2.179796355841372,-0.000154
2.180466237942122,-0.000164
2.1811361200428725,-0.000112
2.1818060021436225,-3e-05
2.182475884244373,4.1e-05
2.183145766345123,7.3e-05
2.1838156484458735,2.9e-05
2.184485530546624,-3.8e-05
2.185155412647374,-2.1e-05
2.1858252947481245,4e-06
2.1864951768488745,-8.4e-05
2.187165058949625,-0.000141
2.187834941050375,-9.2e-05
2.1885048231511255,-0.000111
2.1891747052518755,-0.000177
2.189844587352626,-0.000142
2.190514469453376,-8e-05
2.1911843515541265,-7.4e-05
2.1918542336548765,-4.7e-05
2.192524115755627,6e-06
2.193193997856377,-1.4e-05
2.1938638799571275,-6.5e-05
2.194533762057878,-6.3e-05
2.195203644158628,-7.1e-05
2.1958735262593785,-0.000118
2.1965434083601285,-0.000118
2.197213290460879,-8.1e-05
2.197883172561629,-0.000104
2.1985530546623795,-0.000183
2.1992229367631295,-0.000217
2.19989281886388,-0.000142
2.20056270096463,-4.2e-05
2.2012325830653805,-3.6e-05
2.2019024651661305,-8.6e-05
2.202572347266881,-9e-05
2.2032422293676315,-5.5e-05
2.2039121114683815,-5.4e-05
2.204581993569132,-7.2e-05
2.205251875669882,-8.1e-05
2.2059217577706325,-0.000127
2.2065916398713825,-0.000177
2.207261521972133,-0.000158
2.207931404072883,-0.000141
2.2086012861736335,-0.000203
2.2092711682743835,-0.000231
2.209941050375134,-0.00015
2.210610932475884,-8.2e-05
2.2112808145766345,-0.000115
2.211950696677385,-0.000158
2.212620578778135,-0.000146
2.2132904608788855,-0.000161
2.2139603429796355,-0.000218
2.214630225080386,-0.0002
2.215300107181136,-0.000159
2.2159699892818865,-0.000219
2.2166398713826365,-0.00028
2.217309753483387,-0.000254
2.217979635584137,-0.000231
2.2186495176848875,-0.000222
2.2193193997856375,-0.000178
2.219989281886388,-0.000164
2.220659163987138,-0.000206
2.2213290460878885,-0.000214
2.221998928188639,-0.000166
2.222668810289389,-0.000163
2.2233386923901395,-0.000231
2.2240085744908895,-0.000253
2.22467845659164,-0.000215
2.22534833869239,-0.00021
2.2260182207931405,-0.000231
2.2266881028938905,-0.000234
2.227357984994641,-0.000207
2.228027867095391,-0.000143
2.2286977491961415,-0.000116
2.2293676312968915,-0.00015
2.230037513397642,-0.000145
2.2307073954983925,-0.000115
2.2313772775991425,-0.000119
2.232047159699893,-8.1e-05
2.232717041800643,1.7e-05
2.2333869239013935,4.3e-05
2.2340568060021435,-1.3e-05
2.234726688102894,-2.8e-05
2.235396570203644,-3.1e-05
2.2360664523043945,-9.8e-05
2.2367363344051445,-0.000118
2.237406216505895,-2.6e-05
2.238076098606645,4.8e-05
2.2387459807073955,5.5e-05
2.2394158628081455,8.6e-05
2.240085744908896,0.000145
2.2407556270096465,0.000173
2.2414255091103965,0.000167
2.242095391211147,0.00015
2.242765273311897,0.000143
2.2434351554126475,0.000173
2.2441050375133975,0.000207
2.244774919614148,0.000193
2.245444801714898,0.000164
2.2461146838156485,0.000131
2.2467845659163985,5.6e-05
2.247454448017149,-1e-06
2.248124330117899,-1.4e-05
2.2487942122186495,-4.2e-05
2.2494640943194,-3.8e-05
2.25013397642015,3.6e-05
2.2508038585209005,0.000103
2.2514737406216505,0.000129
2.252143622722401,0.000111
2.252813504823151,4.8e-05
2.2534833869239015,-1.9e-05
2.2541532690246515,-4.6e-05
2.254823151125402,-2e-05
2.255493033226152,2.1e-05
2.2561629153269025,8e-06
2.2568327974276525,-6.3e-05
2.257502679528403,-0.000128
2.258172561629153,-0.000162
2.2588424437299035,-0.000165
2.259512325830654,-0.000136
2.260182207931404,-0.000136
2.2608520900321545,-0.000194
2.2615219721329045,-0.000232
2.262191854233655,-0.000231
2.262861736334405,-0.000236
2.2635316184351555,-0.000225
2.2642015005359055,-0.000206
2.264871382636656,-0.000233
2.265541264737406,-0.000315
2.2662111468381565,-0.00042
2.2668810289389065,-0.000449
2.267550911039657,-0.000363
2.2682207931404075,-0.0003
2.2688906752411575,-0.000298
2.269560557341908,-0.000234
2.270230439442658,-0.000172
2.2709003215434085,-0.000202
2.2715702036441585,-0.000206
2.272240085744909,-0.000192
2.272909967845659,-0.000267
2.2735798499464095,-0.000321
2.2742497320471595,-0.000254
2.27491961414791,-0.000181
2.27558949624866,-0.000133
2.2762593783494105,-2.4e-05
2.2769292604501605,2.3e-05
2.277599142550911,-0.000122
2.2782690246516615,-0.000279
2.2789389067524115,-0.000311
2.279608788853162,-0.000304
2.280278670953912,-0.000243
2.2809485530546625,-4.4e-05
2.2816184351554125,0.000123
2.282288317256163,7.9e-05
2.282958199356913,-3e-06
2.2836280814576635,-1e-06
2.2842979635584135,-7.9e-05
2.284967845659164,-0.000185
2.285637727759914,-0.000159
2.2863076098606645,-0.000175
2.286977491961415,-0.000313
2.287647374062165,-0.000327
2.2883172561629155,-0.000215
2.2889871382636655,-0.000208
2.289657020364416,-0.000278
2.290326902465166,-0.000267
2.2909967845659165,-0.000223
2.2916666666666665,-0.000247
2.292336548767417,-0.000288
2.293006430868167,-0.000291
2.2936763129689175,-0.000289
2.2943461950696675,-0.000301
2.295016077170418,-0.000293
2.295685959271168,-0.000269
2.2963558413719185,-0.00028
2.297025723472669,-0.000274
2.297695605573419,-0.000245
2.2983654876741695,-0.000301
2.2990353697749195,-0.000357
2.29970525187567,-0.000271
2.30037513397642,-0.000157
2.3010450160771705,-0.00013
2.3017148981779205,-8.2e-05
2.302384780278671,3.3e-05
2.303054662379421,6.5e-05
2.3037245444801715,-3.5e-05
2.3043944265809215,-9.4e-05
2.305064308681672,-3.2e-05
2.3057341907824225,1.4e-05
2.3064040728831725,5.9e-05
2.307073954983923,0.000176
2.307743837084673,0.000183
2.3084137191854235,8.3e-05
2.3090836012861735,0.000139
2.309753483386924,0.000278
2.310423365487674,0.000242
2.3110932475884245,0.000122
2.3117631296891745,0.000126
2.312433011789925,0.000162
2.313102893890675,0.000135
2.3137727759914255,0.000175
2.3144426580921755,0.000217
2.315112540192926,7.4e-05
2.3157824222936765,-8.3e-05
2.3164523043944265,-0.000108
2.317122186495177,-0.000178
2.317792068595927,-0.000223
2.3184619506966775,-1.3e-05
2.3191318327974275,0.000154
2.319801714898178,-7.4e-05
2.320471596998928,-0.000352
2.3211414790996785,-0.000327
2.3218113612004285,-0.000269
2.322481243301179,-0.000383
2.323151125401929,-0.000457
2.3238210075026795,-0.000466
2.32449088960343,-0.000563
2.32516077170418,-0.000622
2.3258306538049305,-0.000547
2.3265005359056805,-0.000437
2.327170418006431,-0.000291
2.327840300107181,-0.000237
2.3285101822079315,-0.000497
2.3291800643086815,-0.000779
2.329849946409432,-0.000719
2.330519828510182,-0.000607
2.3311897106109325,-0.000655
2.3318595927116825,-0.00058
2.332529474812433,-0.00042
2.3331993569131835,-0.000437
2.3338692390139335,-0.00056
2.334539121114684,-0.000684
2.335209003215434,-0.000787
2.3358788853161845,-0.000774
2.3365487674169345,-0.000615
2.337218649517685,-0.000428
2.337888531618435,-0.000308
2.3385584137191855,-0.000223
2.3392282958199355,-0.000181
2.339898177920686,-0.000221
2.340568060021436,-0.000229
2.3412379421221865,-0.000127
2.3419078242229365,-7.1e-05
2.342577706323687,-0.000167
2.3432475884244375,-0.000292
2.3439174705251875,-0.000364
2.344587352625938,-0.000453
2.345257234726688,-0.000546
2.3459271168274385,-0.000517
2.3465969989281885,-0.000372
2.347266881028939,-0.000178
2.347936763129689,0.000145
2.3486066452304395,0.000381
2.3492765273311895,0.000233
2.34994640943194,6.6e-05
2.35061629153269,0.000134
2.3512861736334405,8.7e-05
2.351956055734191,-7e-05
2.352625937834941,-0.000124
2.3532958199356915,-0.000183
2.3539657020364415,-0.000155
2.354635584137192,0.00013
2.355305466237942,0.000377
2.3559753483386925,0.000267
2.3566452304394425,-4.4e-05
2.357315112540193,-0.000234
2.357984994640943,-0.000294
2.3586548767416935,-0.000359
2.3593247588424435,-0.000422
2.359994640943194,-0.00037
2.360664523043944,-0.000244
2.3613344051446945,-0.0003
2.362004287245445,-0.000453
2.362674169346195,-0.000323
2.3633440514469455,-8.5e-05
2.3640139335476955,-0.000191
2.364683815648446,-0.000372
2.365353697749196,-0.000121
2.3660235798499465,0.000193
2.3666934619506965,7e-05
2.367363344051447,-0.000182
2.368033226152197,-0.000326
2.3687031082529475,-0.00061
2.3693729903536975,-0.00085
2.370042872454448,-0.000715
2.3707127545551985,-0.000562
2.3713826366559485,-0.000645
2.372052518756699,-0.000662
2.372722400857449,-0.000523
2.3733922829581995,-0.000425
2.3740621650589495,-0.000403
2.3747320471597,-0.000325
2.37540192926045,-0.000176
2.3760718113612005,-0.000239
2.3767416934619505,-0.000638
2.377411575562701,-0.000925
2.378081457663451,-0.000793
2.3787513397642015,-0.000653
2.3794212218649515,-0.000677
2.380091103965702,-0.000392
2.3807609860664525,-0.000108
2.3814308681672025,-0.00057
2.382100750267953,-0.000778
2.382770632368703,0.000282
2.3834405144694535,0.000966
2.3841103965702035,0.00011
2.384780278670954,-0.000708
2.385450160771704,-0.000606
2.3861200428724545,-0.000563
2.3867899249732045,-0.000763
2.387459807073955,-0.0005
2.388129689174705,1e-06
2.3887995712754555,-2.9e-05
2.389469453376206,-0.000464
2.390139335476956,-0.000565
2.3908092175777065,-0.00031
2.3914790996784565,-0.000265
2.392148981779207,-0.000394
2.392818863879957,-0.000345
2.3934887459807075,-0.000279
2.3941586280814575,-0.000374
2.394828510182208,-0.000407
2.395498392282958,-0.000201
2.3961682743837085,-4.8e-05
2.3968381564844585,-0.000383
2.397508038585209,-0.000811
2.398177920685959,-0.000732
2.3988478027867095,-0.000595
2.39951768488746,-0.000772
2.40018756698821,-0.000848
2.4008574490889605,-0.000751
2.4015273311897105,-0.000771
2.402197213290461,-0.000788
2.402867095391211,-0.000376
2.4035369774919615,0.000439
2.4042068595927115,0.000684
2.404876741693462,7.7e-05
2.405546623794212,-0.000156
2.4062165058949625,0.00014
2.4068863879957125,-8.1e-05
2.407556270096463,-0.000775
2.4082261521972135,-0.001115
2.4088960342979635,-0.000821
2.409565916398714,-0.000449
2.410235798499464,-0.00043
2.4109056806002145,-0.000384
2.4115755627009645,-0.000165
2.412245444801715,-0.000104
2.412915326902465,-0.000154
2.4135852090032155,-0.000112
2.4142550911039655,-8.7e-05
2.414924973204716,-0.00016
2.415594855305466,-0.000218
2.4162647374062165,-0.000244
2.4169346195069665,-0.000315
2.417604501607717,-0.000404
2.4182743837084675,-0.000465
2.4189442658092175,-0.000533
2.419614147909968,-0.000619
2.420284030010718,-0.000643
2.4209539121114685,-0.000355
2.4216237942122185,0.000262
2.422293676312969,0.000538
2.422963558413719,0.000239
2.4236334405144695,2.2e-05
2.4243033226152195,8.4e-05
2.42497320471597,9.2e-05
2.42564308681672,4.7e-05
2.4263129689174705,0.000131
2.426982851018221,0.000269
2.427652733118971,0.00035
2.4283226152197215,0.00046
2.4289924973204715,0.000626
2.429662379421222,0.000767
2.430332261521972,0.000814
2.4310021436227225,0.000513
2.4316720257234725,-9e-05
2.432341907824223,-0.000143
2.433011789924973,0.00047
2.4336816720257235,0.000775
2.4343515541264735,0.000782
2.435021436227224,0.001291
2.435691318327974,0.002003
2.4363612004287245,0.001963
2.437031082529475,0.001415
2.437700964630225,0.001266
2.4383708467309755,0.001156
2.4390407288317255,0.000648
2.439710610932476,0.000619
2.440380493033226,0.001023
2.4410503751339765,0.000622
2.4417202572347265,8e-06
2.442390139335477,0.00044
2.443060021436227,0.001029
2.4437299035369775,0.001
2.4443997856377275,0.000954
2.445069667738478,0.000902
2.4457395498392285,0.000631
2.4464094319399785,0.000363
2.447079314040729,0.000204
2.447749196141479,0.000209
2.4484190782422295,0.000247
2.4490889603429795,5.9e-05
2.44975884244373,-0.000199
2.45042872454448,2.3e-05
2.4510986066452305,0.000753
2.4517684887459805,0.001048
2.452438370846731,0.000524
2.453108252947481,5e-05
2.4537781350482315,-4.8e-05
2.4544480171489815,-0.000281
2.455117899249732,-0.00047
2.4557877813504825,-0.000282
2.4564576634512325,0.000234
2.457127545551983,0.00107
2.457797427652733,0.001293
2.4584673097534835,0.000509
2.4591371918542335,-4.8e-05
2.459807073954984,-0.00023
2.460476956055734,-0.000388
2.4611468381564845,-0.000133
2.4618167202572345,0.000202
2.462486602357985,0.000229
2.463156484458735,0.000237
2.4638263665594855,0.000307
2.464496248660236,0.000284
2.465166130760986,3.5e-05
2.4658360128617365,-0.000154
2.4665058949624865,0.00023
2.467175777063237,0.000601
2.467845659163987,0.000115
2.4685155412647375,-0.000474
2.4691854233654875,-0.000295
2.469855305466238,-1.6e-05
2.470525187566988,-0.000185
2.4711950696677385,-0.000268
2.4718649517684885,-0.00012
2.472534833869239,-0.000163
2.4732047159699895,-0.000317
2.4738745980707395,-0.000149
2.47454448017149,0.000439
2.47521436227224,0.000948
2.4758842443729905,0.000837
2.4765541264737405,0.000404
2.477224008574491,1.2e-05
2.477893890675241,-0.000683
2.4785637727759915,-0.001191
2.4792336548767415,-0.000687
2.479903536977492,-3e-06
2.480573419078242,0.000117
2.4812433011789925,0.00023
2.4819131832797425,0.000473
2.482583065380493,0.000503
2.4832529474812435,0.000437
2.4839228295819935,0.000202
2.484592711682744,-0.000397
2.485262593783494,-0.000698
2.4859324758842445,-0.000334
2.4866023579849945,-8.9e-05
2.487272240085745,-0.000231
2.487942122186495,-0.000189
2.4886120042872455,-1.8e-05
2.4892818863879955,-7.8e-05
2.489951768488746,-9e-05
2.490621650589496,0.000198
2.4912915326902465,0.00041
2.491961414790997,0.00035
2.492631296891747,0.000278
2.4933011789924975,0.000197
2.4939710610932475,-0.00012
2.494640943193998,-0.000585
2.495310825294748,-0.000744
2.4959807073954985,-0.000474
2.4966505894962485,-0.0004
2.497320471596999,-0.000674
2.497990353697749,-0.000488
2.4986602357984995,0.000233
2.4993301178992495,0.000561
2.5,0.000225
2.50066988210075,-3.8e-05
2.5013397642015005,5e-06
2.502009646302251,-0.000205
2.502679528403001,-0.000371
2.5033494105037515,6e-06
2.5040192926045015,0.00026
2.504689174705252,0.000158
2.505359056806002,0.000185
2.5060289389067525,-1e-06
2.5066988210075025,-0.000521
2.507368703108253,-0.000551
2.508038585209003,-0.000158
2.5087084673097535,-0.000122
2.5093783494105035,-0.00025
2.510048231511254,-0.000117
2.5107181136120045,-3.7e-05
2.5113879957127545,-0.00016
2.512057877813505,-0.000201
2.512727759914255,-0.000174
2.5133976420150055,-0.000259
2.5140675241157555,-0.000364
2.514737406216506,-0.000401
2.515407288317256,-0.000465
2.5160771704180065,-0.000568
2.5167470525187565,-0.000604
2.517416934619507,-0.000266
2.518086816720257,0.000453
2.5187566988210075,0.000629
2.5194265809217575,0.000153
2.520096463022508,4e-05
2.5207663451232585,0.000195
2.5214362272240085,8.8e-05
2.522106109324759,2.6e-05
2.522775991425509,0.000192
2.5234458735262595,0.00022
2.5241157556270095,-7.4e-05
2.52478563772776,-0.000318
2.52545551982851,3e-06
2.5261254019292605,0.000816
2.5267952840300105,0.001242
2.527465166130761,0.000739
2.528135048231511,0.000189
2.5288049303322615,0.000319
2.529474812433012,0.000393
2.530144694533762,0.000165
2.5308145766345125,0.000346
2.5314844587352625,0.000836
2.532154340836013,0.001263
2.532824222936763,0.001709
2.5334941050375135,0.001763
2.5341639871382635,0.001301
2.534833869239014,0.00112
2.535503751339764,0.001267
2.5361736334405145,0.001146
2.5368435155412645,0.000959
2.537513397642015,0.001029
2.538183279742765,0.001037
2.5388531618435155,0.000765
2.539523043944266,0.000532
2.540192926045016,0.000642
2.5408628081457665,0.000774
2.5415326902465165,0.000431
2.542202572347267,-6.9e-05
2.542872454448017,-1.4e-05
2.5435423365487675,0.000332
2.5442122186495175,0.000303
2.544882100750268,0.000167
2.545551982851018,0.000269
2.5462218649517685,0.00028
2.5468917470525185,0.000113
2.547561629153269,3.8e-05
2.5482315112540195,1e-05
2.5489013933547695,-0.000124
2.54957127545552,-0.000266
2.55024115755627,-0.000341
2.5509110396570205,-0.000436
2.5515809217577705,-0.000561
2.552250803858521,-0.00036
2.552920685959271,0.000425
2.5535905680600215,0.00085
2.5542604501607715,0.000221
2.554930332261522,-0.000209
2.555600214362272,0.000124
2.5562700964630225,0.000116
2.5569399785637725,-0.000214
2.557609860664523,-0.000132
2.5582797427652735,0.000101
2.5589496248660235,0.000234
2.559619506966774,0.00044
2.560289389067524,0.000572
2.5609592711682745,0.000453
2.5616291532690245,0.000428
2.562299035369775,0.000826
2.562968917470525,0.001153
2.5636387995712755,0.000957
2.5643086816720255,0.000612
2.564978563772776,0.000469
2.565648445873526,0.000536
2.5663183279742765,0.0009
2.566988210075027,0.001463
2.567658092175777,0.001724
2.5683279742765275,0.001512
2.5689978563772775,0.001206
2.569667738478028,0.001034
2.570337620578778,0.000871
2.5710075026795285,0.000634
2.5716773847802785,0.00046
2.572347266881029,0.000477
2.573017148981779,0.000572
2.5736870310825295,0.000614
2.5743569131832795,0.000663
2.57502679528403,0.000611
2.57569667738478,0.000283
2.5763665594855305,-6.1e-05
2.577036441586281,4e-06
2.577706323687031,0.0003
2.5783762057877815,0.000185
2.5790460878885315,-0.000303
2.579715969989282,-0.00046
2.580385852090032,-0.000211
2.5810557341907825,-0.000258
2.5817256162915325,-0.000643
2.582395498392283,-0.000663
2.583065380493033,-0.000466
2.5837352625937835,-0.000585
2.5844051446945335,-0.000726
2.585075026795284,-0.000651
2.5857449088960345,-0.000657
2.5864147909967845,-0.000776
2.587084673097535,-0.000795
2.587754555198285,-0.000776
2.5884244372990355,-0.000833
2.5890943193997855,-0.00088
2.589764201500536,-0.000882
2.590434083601286,-0.000905
2.5911039657020365,-0.000937
2.5917738478027865,-0.000942
2.592443729903537,-0.00077
2.593113612004287,-0.000375
2.5937834941050375,-0.000443
2.5944533762057875,-0.001127
2.595123258306538,-0.001287
2.5957931404072885,-0.000859
2.5964630225080385,-0.000865
2.597132904608789,-0.00106
2.597802786709539,-0.000702
2.5984726688102895,-0.000186
2.5991425509110395,-0.000114
2.59981243301179,-9.9e-05
2.60048231511254,0.000228
2.6011521972132905,0.000419
2.6018220793140405,0.000293
2.602491961414791,0.000221
2.603161843515541,0.000325
2.6038317256162915,0.000404
2.604501607717042,0.000432
2.605171489817792,0.000539
2.6058413719185425,0.000683
2.6065112540192925,0.00078
2.607181136120043,0.000882
2.607851018220793,0.001011
2.6085209003215435,0.001076
2.6091907824222935,0.000987
2.609860664523044,0.000898
2.610530546623794,0.001127
2.6112004287245445,0.001529
2.6118703108252945,0.00164
2.612540192926045,0.001477
2.6132100750267955,0.001353
2.6138799571275455,0.00137
2.614549839228296,0.001378
2.615219721329046,0.001235
2.6158896034297965,0.001218
2.6165594855305465,0.001554
2.617229367631297,0.001763
2.617899249732047,0.001374
2.6185691318327975,0.000702
2.6192390139335475,0.000309
2.619908896034298,0.000294
2.620578778135048,0.000372
2.6212486602357985,0.000339
2.6219185423365485,0.000324
2.622588424437299,0.000378
2.6232583065380495,0.000222
2.6239281886387995,-4.4e-05
2.62459807073955,-7.5e-05
2.6252679528403,-8.9e-05
2.6259378349410505,-0.000286
2.6266077170418005,-0.000419
2.627277599142551,-0.000454
2.627947481243301,-0.000571
2.6286173633440515,-0.000709
2.6292872454448015,-0.000717
2.629957127545552,-0.000666
2.630627009646302,-0.000799
2.6312968917470525,-0.001055
2.631966773847803,-0.001091
2.632636655948553,-0.000999
2.6333065380493035,-0.00107
2.6339764201500535,-0.001059
2.634646302250804,-0.000692
2.635316184351554,-0.000252
2.6359860664523045,-5.4e-05
2.6366559485530545,-1e-05
2.637325830653805,4.8e-05
2.637995712754555,5.5e-05
2.6386655948553055,-7e-06
2.6393354769560555,4.2e-05
2.640005359056806,0.000133
2.640675241157556,0.000113
2.6413451232583065,0.000226
2.642015005359057,0.00054
2.642684887459807,0.000701
2.6433547695605575,0.000629
2.6440246516613075,0.000621
2.644694533762058,0.000713
2.645364415862808,0.000683
2.6460342979635585,0.000574
2.6467041800643085,0.000442
2.647374062165059,0.000332
2.648043944265809,0.000447
2.6487138263665595,0.000623
2.6493837084673095,0.000596
2.65005359056806,0.000536
2.6507234726688105,0.000552
2.6513933547695605,0.00049
2.652063236870311,0.000346
2.652733118971061,0.000324
2.6534030010718115,0.000417
2.6540728831725615,0.000224
2.654742765273312,-0.000257
2.655412647374062,-0.000392
2.6560825294748125,-0.000135
2.6567524115755625,-4.2e-05
2.657422293676313,-0.000134
2.658092175777063,-0.00012
2.6587620578778135,-0.000143
2.6594319399785635,-0.000347
2.660101822079314,-0.000467
2.6607717041800645,-0.000477
2.6614415862808145,-0.000629
2.662111468381565,-0.00054
2.662781350482315,0.000184
2.6634512325830655,0.000654
2.6641211146838155,0.000254
2.664790996784566,4.4e-05
2.665460878885316,0.000356
2.6661307609860665,0.000201
2.6668006430868165,-0.000183
2.667470525187567,-0.000153
2.668140407288317,-0.000166
2.6688102893890675,-0.000209
2.669480171489818,0.000102
2.670150053590568,0.000279
2.6708199356913185,7.6e-05
2.6714898177920685,5e-05
2.672159699892819,0.000259
2.672829581993569,0.000306
2.6734994640943195,0.000348
2.6741693461950695,0.000406
2.67483922829582,9.8e-05
2.67550911039657,-0.000198
2.6761789924973205,-8.7e-05
2.6768488745980705,-9.1e-05
2.677518756698821,-0.000347
2.678188638799571,-0.000304
2.6788585209003215,-2.2e-05
2.679528403001072,-0.000145
2.680198285101822,-0.000411
2.6808681672025725,-0.000175
2.6815380493033225,-6e-05
2.682207931404073,-0.000485
2.682877813504823,-0.000609
2.6835476956055735,-0.000417
2.6842175777063235,-0.000751
2.684887459807074,-0.001205
2.685557341907824,-0.000934
2.6862272240085745,-0.000432
2.6868971061093245,-0.000484
2.687566988210075,-0.000797
2.6882368703108255,-0.000729
2.6889067524115755,-0.000476
2.689576634512326,-0.000451
2.690246516613076,-0.000364
2.6909163987138265,-0.000175
2.6915862808145765,-0.000153
2.692256162915327,2.1e-05
2.692926045016077,0.000288
2.6935959271168275,6.6e-05
2.6942658092175775,-0.00028
2.694935691318328,-0.000233
2.695605573419078,-0.000174
2.6962754555198285,-0.000173
2.6969453376205785,4.6e-05
2.697615219721329,0.000201
2.6982851018220795,-8e-06
2.6989549839228295,-0.00018
2.69962486602358,0.000243
2.70029474812433,0.00089
2.7009646302250805,0.000996
2.7016345123258305,0.000764
2.702304394426581,0.000759
2.702974276527331,0.00087
2.7036441586280815,0.000843
2.7043140407288315,0.000832
2.704983922829582,0.000937
2.705653804930332,0.001009
2.7063236870310825,0.000996
2.706993569131833,0.000934
2.707663451232583,0.000848
2.7083333333333335,0.000884
2.7090032154340835,0.001102
2.709673097534834,0.00112
2.710342979635584,0.000793
2.7110128617363345,0.000688
2.7116827438370845,0.001006
2.712352625937835,0.001273
2.713022508038585,0.001272
2.7136923901393355,0.001142
2.7143622722400855,0.000876
2.715032154340836,0.000433
2.715702036441586,0.000154
2.7163719185423365,0.000272
2.717041800643087,0.000366
2.717711682743837,0.000203
2.7183815648445875,0.000114
2.7190514469453375,0.000179
2.719721329046088,0.000284
2.720391211146838,0.000312
2.7210610932475885,-5.7e-05
2.7217309753483385,-0.000544
2.722400857449089,-0.000531
2.723070739549839,-0.000407
2.7237406216505895,-0.00063
2.7244105037513395,-0.000778
2.72508038585209,-0.00071
2.7257502679528405,-0.000655
2.7264201500535905,-0.000399
2.727090032154341,-9.4e-05
2.727759914255091,-0.000309
2.7284297963558415,-0.000518
2.7290996784565915,-5e-06
2.729769560557342,0.000391
2.730439442658092,-4.9e-05
2.7311093247588425,-0.000633
2.7317792068595925,-0.000743
2.732449088960343,-0.000405
2.733118971061093,3.5e-05
2.7337888531618435,0.000293
2.7344587352625935,0.000513
2.735128617363344,0.000562
2.7357984994640945,0.000282
2.7364683815648445,0.000263
2.737138263665595,0.000578
2.737808145766345,0.000736
2.7384780278670955,0.000931
2.7391479099678455,0.001176
2.739817792068596,0.000819
2.740487674169346,9.4e-05
2.7411575562700965,4.2e-05
2.7418274383708465,0.00057
2.742497320471597,0.000849
2.743167202572347,0.000813
2.7438370846730975,0.000677
2.744506966773848,0.000482
2.745176848874598,0.000338
2.7458467309753485,0.000254
2.7465166130760985,0.000176
2.747186495176849,0.000153
2.747856377277599,0.000131
2.7485262593783495,2.3e-05
2.7491961414790995,-0.000104
2.74986602357985,-0.000227
2.7505359056806,-0.00034
2.7512057877813505,-0.000414
2.7518756698821005,-0.000498
2.752545551982851,-0.000601
2.7532154340836015,-0.00068
2.7538853161843515,-0.000748
2.754555198285102,-0.000823
2.755225080385852,-0.00069
2.7558949624866025,-0.000105
2.7565648445873525,0.000359
2.757234726688103,5.9e-05
2.757904608788853,-0.000316
2.7585744908896035,-0.000126
2.7592443729903535,8.2e-05
2.759914255091104,-4.3e-05
2.760584137191854,-0.000191
2.7612540192926045,-0.000283
2.7619239013933545,-0.000535
2.762593783494105,-0.000811
2.7632636655948555,-0.000653
2.7639335476956055,-0.00016
2.764603429796356,1.8e-05
2.765273311897106,-0.000119
2.7659431939978565,4e-05
2.7666130760986065,0.0005
2.767282958199357,0.000677
2.767952840300107,0.000384
2.7686227224008575,8.5e-05
2.7692926045016075,0.00032
2.769962486602358,0.000897
2.770632368703108,0.001004
2.7713022508038585,0.000511
2.771972132904609,0.000123
2.772642015005359,0.000118
2.7733118971061095,0.000195
2.7739817792068595,0.000321
2.77465166130761,0.000506
2.77532154340836,0.000425
2.7759914255091105,0.000205
2.7766613076098605,4.2e-05
2.777331189710611,-0.000355
2.778001071811361,-0.000593
2.7786709539121115,-0.000276
2.7793408360128615,0.000206
2.780010718113612,0.000825
2.780680600214362,0.001218
2.7813504823151125,0.000849
2.782020364415863,0.000386
2.782690246516613,0.000441
2.7833601286173635,0.000753
2.7840300107181135,0.000844
2.784699892818864,0.000367
2.785369774919614,-0.000334
2.7860396570203645,-0.000428
2.7867095391211145,9.2e-05
2.787379421221865,0.0004
2.788049303322615,0.000302
2.7887191854233655,0.000371
2.7893890675241155,0.000562
2.790058949624866,0.000535
2.7907288317256165,0.000751
2.7913987138263665,0.001055
2.792068595927117,0.00064
2.792738478027867,0.000266
2.7934083601286175,0.000771
2.7940782422293675,0.001151
2.794748124330118,0.000897
2.795418006430868,0.000744
2.7960878885316185,0.000698
2.7967577706323685,0.000503
2.797427652733119,0.000506
2.798097534833869,0.000504
2.7987674169346195,6.7e-05
2.7994372990353695,-0.000168
2.80010718113612,0.000298
2.8007770632368705,0.000631
2.8014469453376205,0.00034
2.802116827438371,0.00022
2.802786709539121,0.000526
2.8034565916398715,0.000613
2.8041264737406215,0.000569
2.804796355841372,0.000694
2.805466237942122,0.000488
2.8061361200428725,2.1e-05
2.8068060021436225,0.000129
2.807475884244373,0.000621
2.808145766345123,0.000577
2.8088156484458735,4.7e-05
2.809485530546624,-0.000184
2.810155412647374,-0.000134
2.8108252947481245,-0.00031
2.8114951768488745,-0.000322
2.812165058949625,6.1e-05
2.812834941050375,5e-06
2.8135048231511255,-0.000503
2.8141747052518755,-0.000552
2.814844587352626,-0.000308
2.815514469453376,-0.000396
2.8161843515541265,-0.000543
2.8168542336548765,-0.000461
2.817524115755627,-0.000451
2.818193997856377,-0.000576
2.8188638799571275,-0.0006
2.819533762057878,-0.000587
2.820203644158628,-0.000672
2.8208735262593785,-0.000748
2.8215434083601285,-0.000732
2.822213290460879,-0.000728
2.822883172561629,-0.000838
2.8235530546623795,-0.000888
2.8242229367631295,-0.000668
2.82489281886388,-0.000312
2.82556270096463,-5.2e-05
2.8262325830653805,-1.4e-05
2.8269024651661305,-0.000205
2.827572347266881,-0.000326
2.8282422293676315,-0.000268
2.8289121114683815,-0.000438
2.829581993569132,-0.000863
2.830251875669882,-0.001013
2.8309217577706325,-0.000588
2.8315916398713825,2.5e-05
2.832261521972133,8.6e-05
2.832931404072883,-0.000196
2.8336012861736335,5.7e-05
2.8342711682743835,0.000577
2.834941050375134,0.000638
2.835610932475884,0.000587
2.8362808145766345,0.000736
2.8369506966773845,0.000787
2.837620578778135,0.000812
2.8382904608788855,0.000928
2.8389603429796355,0.000928
2.839630225080386,0.00089
2.840300107181136,0.000984
2.8409699892818865,0.001026
2.8416398713826365,0.000855
2.842309753483387,0.000649
2.842979635584137,0.000604
2.8436495176848875,0.000691
2.8443193997856375,0.000834
2.844989281886388,0.000878
2.845659163987138,0.000772
2.8463290460878885,0.000642
2.846998928188639,0.000522
2.847668810289389,0.000507
2.8483386923901395,0.000541
2.8490085744908895,0.000362
2.84967845659164,0.000195
2.85034833869239,0.00026
2.8510182207931405,0.000227
2.8516881028938905,3.2e-05
2.852357984994641,-5.6e-05
2.853027867095391,-0.000102
2.8536977491961415,-0.000252
2.8543676312968915,-0.000394
2.855037513397642,-0.000368
2.855707395498392,-0.000124
2.8563772775991425,0.000128
2.857047159699893,0.00022
2.857717041800643,0.000324
2.8583869239013935,0.00024
2.8590568060021435,-0.000227
2.859726688102894,-0.000341
2.860396570203644,0.000124
2.8610664523043945,0.000262
2.8617363344051445,3.2e-05
2.862406216505895,0.000181
2.863076098606645,0.000474
2.8637459807073955,0.000418
2.8644158628081455,0.000306
2.865085744908896,0.000319
2.8657556270096465,0.000301
2.8664255091103965,0.000268
2.867095391211147,0.00014
2.867765273311897,-1e-05
2.8684351554126475,0.000185
2.8691050375133975,0.000477
2.869774919614148,0.000447
2.870444801714898,0.000388
2.8711146838156485,0.00048
2.8717845659163985,0.000452
2.872454448017149,0.000308
2.873124330117899,0.000231
2.8737942122186495,0.000158
2.8744640943193995,1.3e-05
2.87513397642015,-0.000124
2.8758038585209005,-0.000131
2.8764737406216505,0.000173
2.877143622722401,0.000746
2.877813504823151,0.000934
2.8784833869239015,0.0004
2.8791532690246515,2.4e-05
2.879823151125402,0.000231
2.880493033226152,0.000239
2.8811629153269025,-8e-06
2.8818327974276525,-0.00018
2.882502679528403,-0.000611
2.883172561629153,-0.000937
2.8838424437299035,-0.000587
2.884512325830654,-0.000193
2.885182207931404,-7.8e-05
2.8858520900321545,0.000214
2.8865219721329045,0.000599
2.887191854233655,0.000836
2.887861736334405,0.000989
2.8885316184351555,0.000885
2.8892015005359055,0.000565
2.889871382636656,0.000411
2.890541264737406,0.000391
2.8912111468381565,0.000379
2.8918810289389065,0.00033
2.892550911039657,6.9e-05
2.8932207931404075,-0.000163
2.8938906752411575,-3.6e-05
2.894560557341908,0.000254
2.895230439442658,0.000676
2.8959003215434085,0.00112
2.8965702036441585,0.00095
2.897240085744909,0.000468
2.897909967845659,0.00042
2.8985798499464095,0.000273
2.8992497320471595,-0.000254
2.89991961414791,-0.000433
2.90058949624866,-0.000222
2.9012593783494105,-2.5e-05
2.9019292604501605,8.6e-05
2.902599142550911,-6.2e-05
2.9032690246516615,-0.000412
