Time,Raw,FIR,IIR
0.0,0.000173,,
0.0006666666666666,0.000184,,
0.0013333333333333,0.000232,,
0.002,0.000288,,
0.0026666666666666,0.000322,,
0.0033333333333333,0.000271,,
0.004,0.000209,,
0.0046666666666666,0.000196,,
0.0053333333333333,0.000257,,
0.006,0.000299,,
0.0066666666666666,0.000326,,
0.0073333333333333,0.000294,,
0.008,0.000222,,
0.0086666666666666,0.000185,,
0.0093333333333333,0.000152,,
0.01,8.9e-05,,
0.0106666666666666,-0.0,,
0.0113333333333333,-9e-05,,
0.012,-0.000194,,
0.0126666666666666,-0.000271,,
0.0133333333333333,-0.000334,,
0.014,-0.000386,,
0.0146666666666666,-0.000452,,
0.0153333333333333,-0.000501,,
0.016,-0.000522,,
0.0166666666666666,-0.000508,,
0.0173333333333333,-0.000395,,
0.018,-0.000218,,
0.0186666666666666,1.7e-05,,
0.0193333333333333,0.00013,,
0.02,0.000149,,
0.0206666666666666,0.00017,,
0.0213333333333333,0.000187,,
0.022,0.000167,,
0.0226666666666666,0.000163,,
0.0233333333333333,0.000169,,
0.024,0.000185,,
0.0246666666666666,0.000196,,
0.0253333333333333,0.000255,,
0.026,0.0003,,
0.0266666666666666,0.000313,,
0.0273333333333333,0.000304,,
0.028,0.000265,,
0.0286666666666666,0.000223,,
0.0293333333333333,0.000172,,
0.03,7.8e-05,,
0.0306666666666666,-3.3e-05,,
0.0313333333333333,-0.000113,,
0.032,-0.000168,,
0.0326666666666666,-0.00026,,
0.0333333333333333,-0.000356,,
0.0339999999999999,-0.00046,,
0.0346666666666666,-0.000537,,
0.0353333333333333,-0.000593,,
0.036,-0.000587,,
0.0366666666666666,-0.000533,,
0.0373333333333333,-0.000405,,
0.038,-0.00022,,
0.0386666666666666,1e-06,,
0.0393333333333333,0.000106,,
0.04,0.000114,,
0.0406666666666666,0.000115,,
0.0413333333333333,0.000122,,
0.0419999999999999,9.5e-05,,
0.0426666666666666,8.4e-05,,
0.0433333333333333,9.5e-05,,
0.044,9.5e-05,,
0.0446666666666666,7.5e-05,,
0.0453333333333333,9.6e-05,,
0.046,0.000111,,
0.0466666666666666,0.000105,,
0.0473333333333333,0.000127,,
0.048,0.00016,,
0.0486666666666666,0.00021,,
0.0493333333333333,0.000205,,
0.0499999999999999,0.000134,,
0.0506666666666666,5.8e-05,,
0.0513333333333333,-3e-05,,
0.052,-0.000135,,
0.0526666666666666,-0.000243,,
0.0533333333333333,-0.00037,,
0.054,-0.000481,,
0.0546666666666666,-0.000547,,
0.0553333333333333,-0.00053,,
0.056,-0.000511,,
0.0566666666666666,-0.00048,,
0.0573333333333333,-0.000356,,
0.0579999999999999,-0.000175,,
0.0586666666666666,4.9e-05,,
0.0593333333333333,0.000133,,
0.06,0.000155,,
0.0606666666666666,0.000138,,
0.0613333333333333,0.000117,,
0.062,0.000131,,
0.0626666666666666,0.000161,,
0.0633333333333333,0.000186,,
0.064,0.000168,,
0.0646666666666666,0.000111,,
0.0653333333333333,0.000145,,
0.066,0.000175,,
0.0666666666666666,0.000156,,
0.0673333333333333,0.000156,,
0.0679999999999999,0.000161,,
0.0686666666666666,0.000169,,
0.0693333333333333,0.000115,,
0.0699999999999999,2.9e-05,,
0.0706666666666666,-7.7e-05,,
0.0713333333333333,-0.000196,,
0.072,-0.000303,,
0.0726666666666666,-0.00038,,
0.0733333333333333,-0.000426,,
0.074,-0.000459,,
0.0746666666666666,-0.000509,,
0.0753333333333333,-0.000506,,
0.076,-0.000509,,
0.0766666666666666,-0.000489,,
0.0773333333333333,-0.000367,,
0.078,-0.000185,,
0.0786666666666666,2.8e-05,,
0.0793333333333333,8.1e-05,,
0.08,5.4e-05,,
0.0806666666666666,5e-05,,
0.0813333333333333,6.9e-05,,
0.082,8.6e-05,,
0.0826666666666666,0.000103,,
0.0833333333333333,0.000128,,
0.0839999999999999,0.000156,,
0.0846666666666666,0.000156,,
0.0853333333333333,0.000172,,
0.086,0.000185,,
0.0866666666666666,0.000196,,
0.0873333333333333,0.000165,,
0.088,0.000148,,
0.0886666666666666,0.000156,,
0.0893333333333333,0.000142,,
0.09,5.4e-05,,
0.0906666666666666,-2.6e-05,,
0.0913333333333333,-0.00011,,
0.092,-0.000248,,
0.0926666666666666,-0.000348,,
0.0933333333333333,-0.000434,,
0.094,-0.000529,,
0.0946666666666666,-0.000575,,
0.0953333333333333,-0.000586,,
0.096,-0.000593,,
0.0966666666666666,-0.000557,,
0.0973333333333333,-0.000378,,
0.0979999999999999,-0.00018,,
0.0986666666666666,3.7e-05,,
0.0993333333333333,7.7e-05,,
0.0999999999999999,3.7e-05,,
0.1006666666666666,3.5e-05,,
0.1013333333333333,9.5e-05,,
0.102,0.000162,,
0.1026666666666666,0.000177,,
0.1033333333333333,0.000173,,
0.104,0.000149,,
0.1046666666666666,0.000144,,
0.1053333333333333,0.000166,,
0.106,0.000188,,
0.1066666666666666,0.000167,,
0.1073333333333333,0.000116,,
0.108,8.7e-05,,
0.1086666666666666,0.000102,,
0.1093333333333333,7.6e-05,,
0.11,2.9e-05,,
0.1106666666666666,-3.5e-05,,
0.1113333333333333,-8e-05,,
0.112,-0.000134,,
0.1126666666666666,-0.000251,,
0.1133333333333333,-0.000352,,
0.1139999999999999,-0.000439,,
0.1146666666666666,-0.000508,,
0.1153333333333333,-0.000516,,
0.1159999999999999,-0.000507,,
0.1166666666666666,-0.000444,,
0.1173333333333333,-0.000297,,
0.118,-0.000151,,
0.1186666666666666,4.2e-05,,
0.1193333333333333,0.000143,,
0.12,0.000153,,
0.1206666666666666,0.0001,,
0.1213333333333333,0.000134,,
0.122,0.000222,,
0.1226666666666666,0.000248,,
0.1233333333333333,0.000241,,
0.124,0.000212,,
0.1246666666666666,0.000178,,
0.1253333333333333,0.000199,,
0.126,0.00023,,
0.1266666666666666,0.000233,,
0.1273333333333333,0.000206,,
0.128,0.000168,,
0.1286666666666666,0.000156,,
0.1293333333333333,9.8e-05,,
0.13,2.8e-05,,
0.1306666666666666,-5e-05,,
0.1313333333333333,-0.000141,,
0.132,-0.000212,,
0.1326666666666666,-0.000292,,
0.1333333333333333,-0.000409,,
0.134,-0.000482,,
0.1346666666666666,-0.000539,,
0.1353333333333333,-0.000527,,
0.1359999999999999,-0.000524,,
0.1366666666666666,-0.000524,,
0.1373333333333333,-0.000407,,
0.1379999999999999,-0.000235,,
0.1386666666666666,-9e-06,,
0.1393333333333333,7.4e-05,,
0.1399999999999999,0.000109,,
0.1406666666666666,0.000119,,
0.1413333333333333,0.000142,,
0.142,0.000144,,
0.1426666666666666,0.000123,,
0.1433333333333333,0.000111,,
0.144,9.7e-05,,
0.1446666666666666,9.9e-05,,
0.1453333333333333,0.000154,,
0.146,0.000164,,
0.1466666666666666,0.000155,,
0.1473333333333333,0.000147,,
0.148,0.00016,,
0.1486666666666666,0.000157,,
0.1493333333333333,7.6e-05,,
0.15,-2.2e-05,,
0.1506666666666666,-0.000117,,
0.1513333333333333,-0.000209,,
0.152,-0.000301,,
0.1526666666666666,-0.000413,,
0.1533333333333333,-0.000483,,
0.154,-0.000533,,
0.1546666666666666,-0.00057,,
0.1553333333333333,-0.000596,,
0.156,-0.000591,,
0.1566666666666666,-0.000536,,
0.1573333333333333,-0.000371,,
0.158,-0.00015,,
0.1586666666666666,9e-05,,
0.1593333333333333,0.000164,,
0.16,0.000159,,
0.1606666666666666,0.00016,,
0.1613333333333333,0.00015,,
0.162,0.000165,,
0.1626666666666666,0.000186,,
0.1633333333333333,0.000188,,
0.164,0.000194,,
0.1646666666666666,0.000182,,
0.1653333333333333,0.000208,,
0.1659999999999999,0.000196,,
0.1666666666666666,0.0002,,
0.1673333333333333,0.000211,,
0.1679999999999999,0.000221,,
0.1686666666666666,0.00021,,
0.1693333333333333,0.000149,,
0.1699999999999999,7.8e-05,,
0.1706666666666666,-2.9e-05,,
0.1713333333333333,-0.000137,,
0.172,-0.000248,,
0.1726666666666666,-0.000352,,
0.1733333333333333,-0.00042,,
0.174,-0.000485,,
0.1746666666666666,-0.000538,,
0.1753333333333333,-0.000547,,
0.176,-0.000547,,
0.1766666666666666,-0.000485,,
0.1773333333333333,-0.000362,,
0.178,-0.000204,,
0.1786666666666666,1.2e-05,,
0.1793333333333333,4.8e-05,,
0.18,6.4e-05,,
0.1806666666666666,8.2e-05,,
0.1813333333333333,9.1e-05,,
0.182,0.000109,,
0.1826666666666666,0.000138,,
0.1833333333333333,0.000166,,
0.184,0.00019,,
0.1846666666666666,0.000191,,
0.1853333333333333,0.000219,,
0.186,0.000206,,
0.1866666666666666,0.000219,,
0.1873333333333333,0.000217,,
0.188,0.000204,,
0.1886666666666666,0.000155,,
0.1893333333333333,8.2e-05,,
0.19,5e-05,,
0.1906666666666666,-6e-06,,
0.1913333333333333,-0.000109,,
0.192,-0.000217,,
0.1926666666666666,-0.000322,,
0.1933333333333333,-0.000391,,
0.194,-0.000427,,
0.1946666666666666,-0.000489,,
0.1953333333333333,-0.000526,,
0.1959999999999999,-0.000519,,
0.1966666666666666,-0.000454,,
0.1973333333333333,-0.000297,,
0.1979999999999999,-0.00014,,
0.1986666666666666,5.9e-05,,
0.1993333333333333,0.000108,,
0.1999999999999999,0.00011,,
0.2006666666666666,0.000104,,
0.2013333333333333,0.00012,,
0.2019999999999999,0.000135,,
0.2026666666666666,0.000157,,
0.2033333333333333,0.00016,,
0.204,0.000139,,
0.2046666666666666,0.00011,,
0.2053333333333333,0.000166,,
0.206,0.000197,,
0.2066666666666666,0.000208,,
0.2073333333333333,0.000203,,
0.208,0.000187,,
0.2086666666666666,0.000171,,
0.2093333333333333,0.000109,,
0.21,1.5e-05,,
0.2106666666666666,-5.1e-05,,
0.2113333333333333,-0.000109,,
0.212,-0.000199,,
0.2126666666666666,-0.000294,,
0.2133333333333333,-0.000386,,
0.214,-0.000468,,
0.2146666666666666,-0.000541,,
0.2153333333333333,-0.000577,,
0.216,-0.00058,,
0.2166666666666666,-0.000518,,
0.2173333333333333,-0.000362,,
0.218,-0.000175,,
0.2186666666666666,6.8e-05,,
0.2193333333333333,0.000149,,
0.22,0.00017,,
0.2206666666666666,0.00013,,
0.2213333333333333,0.000113,,
0.222,0.000113,,
0.2226666666666666,0.000129,,
0.2233333333333333,0.000131,,
0.224,0.000133,,
0.2246666666666666,0.000139,,
0.2253333333333333,0.000188,,
0.2259999999999999,0.000212,,
0.2266666666666666,0.000231,,
0.2273333333333333,0.000266,,
0.2279999999999999,0.00025,,
0.2286666666666666,0.000188,,
0.2293333333333333,8.5e-05,,
0.2299999999999999,1.4e-05,,
0.2306666666666666,-5.8e-05,,
0.2313333333333333,-0.000134,,
0.2319999999999999,-0.000261,,
0.2326666666666666,-0.000389,,
0.2333333333333333,-0.000487,,
0.2339999999999999,-0.000534,,
0.2346666666666666,-0.000594,,
0.2353333333333333,-0.00063,,
0.236,-0.000593,,
0.2366666666666666,-0.000533,,
0.2373333333333333,-0.000344,,
0.238,-0.00014,,
0.2386666666666666,8e-05,,
0.2393333333333333,0.000178,,
0.24,0.000202,,
0.2406666666666666,0.000179,,
0.2413333333333333,0.000164,,
0.242,0.000166,,
0.2426666666666666,0.000161,,
0.2433333333333333,0.00017,,
0.244,0.000197,,
0.2446666666666666,0.000188,,
0.2453333333333333,0.000212,,
0.246,0.000177,,
0.2466666666666666,0.000158,,
0.2473333333333333,0.000103,,
0.248,9.2e-05,,
0.2486666666666666,0.000147,,
0.2493333333333333,9.5e-05,,
0.25,4.2e-05,,
0.2506666666666666,-0.0,,
0.2513333333333333,-5.1e-05,,
0.252,-0.000152,,
0.2526666666666666,-0.000239,,
0.2533333333333333,-0.000308,,
0.254,-0.000382,,
0.2546666666666666,-0.000463,,
0.2553333333333333,-0.000508,,
0.256,-0.000522,,
0.2566666666666666,-0.000464,,
0.2573333333333333,-0.000325,,
0.258,-0.000145,,
0.2586666666666666,5.9e-05,,
0.2593333333333333,0.000133,,
0.26,0.000153,,
0.2606666666666666,0.000144,,
0.2613333333333333,0.000145,,
0.262,0.000152,,
0.2626666666666666,0.000161,,
0.2633333333333333,0.000184,,
0.264,0.000186,,
0.2646666666666666,0.000184,,
0.2653333333333333,0.000206,,
0.266,0.000185,,
0.2666666666666666,0.000161,,
0.2673333333333333,0.000149,,
0.268,0.000159,,
0.2686666666666666,0.000164,,
0.2693333333333333,0.000111,,
0.27,5.9e-05,,
0.2706666666666666,-3.2e-05,,
0.2713333333333333,-0.000123,,
0.2719999999999999,-0.000214,,
0.2726666666666666,-0.000287,,
0.2733333333333333,-0.000386,,
0.2739999999999999,-0.000446,,
0.2746666666666666,-0.000488,,
0.2753333333333333,-0.000468,,
0.2759999999999999,-0.000468,,
0.2766666666666666,-0.000476,,
0.2773333333333333,-0.000403,,
0.2779999999999999,-0.000251,,
0.2786666666666667,-1e-05,,
0.2793333333333333,7.4e-05,,
0.2799999999999999,7.8e-05,,
0.2806666666666667,5e-05,,
0.2813333333333333,4.7e-05,,
0.282,4.3e-05,,
0.2826666666666667,6.9e-05,,
0.2833333333333333,9.7e-05,,
0.284,0.000105,,
0.2846666666666667,0.000128,,
0.2853333333333333,0.00015,,
0.286,0.00015,,
0.2866666666666667,0.000165,,
0.2873333333333333,0.000227,,
0.288,0.000258,,
0.2886666666666667,0.000265,,
0.2893333333333333,0.000193,,
0.29,0.000105,,
0.2906666666666667,3.1e-05,,
0.2913333333333333,-7.7e-05,,
0.292,-0.000183,,
0.2926666666666666,-0.000258,,
0.2933333333333333,-0.000315,,
0.294,-0.000373,,
0.2946666666666666,-0.000468,,
0.2953333333333333,-0.000505,,
0.296,-0.000482,,
0.2966666666666666,-0.000398,,
0.2973333333333333,-0.000254,,
0.298,-8.1e-05,,
0.2986666666666666,0.000103,,
0.2993333333333333,0.000155,,
0.3,0.000144,,
0.3006666666666666,0.000134,,
0.3013333333333333,0.000136,,
0.302,0.000167,,
0.3026666666666666,0.000182,,
0.3033333333333333,0.000184,,
0.304,0.000131,,
0.3046666666666666,0.00012,,
0.3053333333333333,0.000182,,
0.306,0.000224,,
0.3066666666666666,0.000206,,
0.3073333333333333,0.000207,,
0.308,0.000185,,
0.3086666666666666,0.000158,,
0.3093333333333333,8.8e-05,,
0.31,3.4e-05,,
0.3106666666666666,-4.6e-05,,
0.3113333333333333,-0.000122,,
0.312,-0.000231,,
0.3126666666666666,-0.000339,,
0.3133333333333333,-0.000435,,
0.314,-0.000492,,
0.3146666666666666,-0.000526,,
0.3153333333333333,-0.000508,,
0.316,-0.000494,,
0.3166666666666666,-0.000402,,
0.3173333333333333,-0.000242,,
0.318,-7.3e-05,,
0.3186666666666666,8.4e-05,,
0.3193333333333333,0.000131,,
0.32,0.00013,,
0.3206666666666666,0.000118,,
0.3213333333333333,0.000122,,
0.322,0.000155,,
0.3226666666666666,0.000181,,
0.3233333333333333,0.000219,,
0.324,0.000211,,
0.3246666666666666,0.000214,,
0.3253333333333333,0.000241,,
0.326,0.000242,,
0.3266666666666666,0.000253,,
0.3273333333333333,0.000244,,
0.328,0.000211,,
0.3286666666666666,0.000163,,
0.3293333333333333,6.9e-05,,
0.33,-2.4e-05,,
0.3306666666666666,-0.000104,,
0.3313333333333333,-0.000171,,
0.3319999999999999,-0.000261,,
0.3326666666666666,-0.000341,,
0.3333333333333333,-0.000444,,
0.3339999999999999,-0.00053,,
0.3346666666666666,-0.000566,,
0.3353333333333333,-0.000569,,
0.3359999999999999,-0.000579,,
0.3366666666666666,-0.000504,,
0.3373333333333333,-0.000306,,
0.3379999999999999,-9.9e-05,,
0.3386666666666666,8.1e-05,,
0.3393333333333333,0.000134,,
0.3399999999999999,0.000165,,
0.3406666666666667,0.000189,,
0.3413333333333333,0.000221,,
0.3419999999999999,0.000223,,
0.3426666666666667,0.000214,,
0.3433333333333333,0.000217,,
0.344,0.0002,,
0.3446666666666667,0.000196,,
0.3453333333333333,0.000205,,
0.346,0.000223,,
0.3466666666666667,0.000202,,
0.3473333333333333,0.000164,,
0.348,0.000145,,
0.3486666666666667,0.000109,,
0.3493333333333333,1.8e-05,,
0.35,-6.8e-05,,
0.3506666666666667,-0.00017,,
0.3513333333333333,-0.000294,,
0.352,-0.000372,,
0.3526666666666666,-0.000409,,
0.3533333333333333,-0.000419,,
0.354,-0.000475,,
0.3546666666666666,-0.00054,,
0.3553333333333333,-0.000557,,
0.356,-0.000577,,
0.3566666666666666,-0.000453,,
0.3573333333333333,-0.000238,,
0.358,-2.7e-05,,
0.3586666666666666,0.000125,,
0.3593333333333333,0.000156,,
0.36,0.000154,,
0.3606666666666666,0.000158,,
0.3613333333333333,0.000201,,
0.362,0.000217,,
0.3626666666666666,0.000214,,
0.3633333333333333,0.000205,,
0.364,0.000199,,
0.3646666666666666,0.000194,,
0.3653333333333333,0.000197,,
0.366,0.000164,,
0.3666666666666666,0.00016,,
0.3673333333333333,0.000192,,
0.368,0.000225,,
0.3686666666666666,0.00018,,
0.3693333333333333,0.000112,,
0.37,5.2e-05,,
0.3706666666666666,5e-06,,
0.3713333333333333,-4.9e-05,,
0.372,-0.000167,,
0.3726666666666666,-0.00027,,
0.3733333333333333,-0.000381,,
0.374,-0.000459,,
0.3746666666666666,-0.000494,,
0.3753333333333333,-0.000459,,
0.376,-0.000439,,
0.3766666666666666,-0.000373,,
0.3773333333333333,-0.000218,,
0.378,-5.2e-05,,
0.3786666666666666,9.4e-05,,
0.3793333333333333,0.000117,,
0.38,0.00012,,
0.3806666666666666,0.000147,,
0.3813333333333333,0.000173,,
0.382,0.000161,,
0.3826666666666666,0.000153,,
0.3833333333333333,0.000167,,
0.384,0.000164,,
0.3846666666666666,0.000189,,
0.3853333333333333,0.000235,,
0.386,0.000233,,
0.3866666666666666,0.000202,,
0.3873333333333333,0.00017,,
0.388,0.000153,,
0.3886666666666666,0.000136,,
0.3893333333333333,8.1e-05,,
0.39,2e-05,,
0.3906666666666666,-5.6e-05,,
0.3913333333333333,-0.000162,,
0.3919999999999999,-0.000297,,
0.3926666666666666,-0.000386,,
0.3933333333333333,-0.000402,,
0.3939999999999999,-0.00043,,
0.3946666666666666,-0.000448,,
0.3953333333333333,-0.000445,,
0.3959999999999999,-0.000432,,
0.3966666666666666,-0.000355,,
0.3973333333333333,-0.000266,,
0.3979999999999999,-6.4e-05,,
0.3986666666666666,7.5e-05,,
0.3993333333333333,0.000121,,
0.3999999999999999,0.000133,,
0.4006666666666666,0.000128,,
0.4013333333333333,0.000136,,
0.4019999999999999,0.000158,,
0.4026666666666667,0.000167,,
0.4033333333333333,0.000187,,
0.4039999999999999,0.000176,,
0.4046666666666667,0.00019,,
0.4053333333333333,0.000186,,
0.4059999999999999,0.000176,,
0.4066666666666667,0.000158,,
0.4073333333333333,0.000154,,
0.408,0.000147,,
0.4086666666666667,0.0001,,
0.4093333333333333,2.5e-05,,
0.41,-3e-05,,
0.4106666666666667,-8.8e-05,,
0.4113333333333333,-0.000192,,
0.412,-0.000333,,
0.4126666666666666,-0.00043,,
0.4133333333333333,-0.000504,,
0.414,-0.000602,,
0.4146666666666666,-0.000651,,
0.4153333333333333,-0.00064,,
0.416,-0.000588,,
0.4166666666666666,-0.000449,,
0.4173333333333333,-0.000268,,
0.418,-4.1e-05,,
0.4186666666666666,0.000103,,
0.4193333333333333,0.000132,,
0.42,0.000168,,
0.4206666666666666,0.000172,,
0.4213333333333333,0.000175,,
0.422,0.000166,,
0.4226666666666666,0.000165,,
0.4233333333333333,0.000185,,
0.424,0.000186,,
0.4246666666666666,0.000178,,
0.4253333333333333,0.000183,,
0.426,0.000177,,
0.4266666666666666,0.000165,,
0.4273333333333333,0.000178,,
0.428,0.000178,,
0.4286666666666666,0.000127,,
0.4293333333333333,3.6e-05,,
0.43,-3.6e-05,,
0.4306666666666666,-8.6e-05,,
0.4313333333333333,-0.000168,,
0.432,-0.000276,,
0.4326666666666666,-0.000386,,
0.4333333333333333,-0.000468,,
0.434,-0.000552,,
0.4346666666666666,-0.00059,,
0.4353333333333333,-0.000576,,
0.436,-0.000533,,
0.4366666666666666,-0.000398,,
0.4373333333333333,-0.000209,,
0.438,3.3e-05,,
0.4386666666666666,0.000137,,
0.4393333333333333,0.000138,,
0.44,0.000138,,
0.4406666666666666,0.000133,,
0.4413333333333333,0.000123,,
0.442,9.8e-05,,
0.4426666666666666,0.000109,,
0.4433333333333333,0.000149,,
0.444,0.000162,,
0.4446666666666666,0.000187,,
0.4453333333333333,0.000218,,
0.446,0.000188,,
0.4466666666666666,0.000166,,
0.4473333333333333,0.000177,,
0.448,0.000192,,
0.4486666666666666,0.000165,,
0.4493333333333333,8.6e-05,,
0.45,0.0,,
0.4506666666666666,-8.5e-05,,
0.4513333333333333,-0.000199,,
0.4519999999999999,-0.000323,,
0.4526666666666666,-0.000429,,
0.4533333333333333,-0.000498,,
0.4539999999999999,-0.000547,,
0.4546666666666666,-0.000576,,
0.4553333333333333,-0.000583,,
0.4559999999999999,-0.000574,,
0.4566666666666666,-0.000456,,
0.4573333333333333,-0.00025,,
0.4579999999999999,-3.2e-05,,
0.4586666666666666,7.6e-05,,
0.4593333333333333,0.000129,,
0.4599999999999999,0.000187,,
0.4606666666666666,0.000241,,
0.4613333333333333,0.000277,,
0.4619999999999999,0.000266,,
0.4626666666666666,0.000242,,
0.4633333333333333,0.000255,,
0.4639999999999999,0.000228,,
0.4646666666666667,0.000233,,
0.4653333333333333,0.000205,,
0.4659999999999999,0.000199,,
0.4666666666666667,0.0002,,
0.4673333333333333,0.000196,,
0.4679999999999999,0.000208,,
0.4686666666666667,0.00015,,
0.4693333333333333,5e-05,,
0.47,-3.6e-05,,
0.4706666666666667,-0.00012,,
0.4713333333333333,-0.000199,,
0.472,-0.000297,,
0.4726666666666666,-0.000372,,
0.4733333333333333,-0.000397,,
0.474,-0.000466,,
0.4746666666666666,-0.000536,,
0.4753333333333333,-0.000557,,
0.476,-0.000552,,
0.4766666666666666,-0.00044,,
0.4773333333333333,-0.000243,,
0.478,4e-06,,
0.4786666666666666,0.000138,,
0.4793333333333333,0.000186,,
0.48,0.000225,,
0.4806666666666666,0.000224,,
0.4813333333333333,0.000196,,
0.482,0.000163,,
0.4826666666666666,0.000145,,
0.4833333333333333,0.00016,,
0.484,0.000195,,
0.4846666666666666,0.000261,,
0.4853333333333333,0.00029,,
0.486,0.000288,,
0.4866666666666666,0.000267,,
0.4873333333333333,0.000215,,
0.488,0.00021,,
0.4886666666666666,0.000193,,
0.4893333333333333,0.000114,,
0.49,3.2e-05,,
0.4906666666666666,-6.8e-05,,
0.4913333333333333,-0.000168,,
0.492,-0.000242,,
0.4926666666666666,-0.000308,,
0.4933333333333333,-0.000387,,
0.494,-0.000453,,
0.4946666666666666,-0.000464,,
0.4953333333333333,-0.000462,,
0.496,-0.000446,,
0.4966666666666666,-0.000342,,
0.4973333333333333,-0.000198,,
0.498,1.8e-05,,
0.4986666666666666,0.000115,,
0.4993333333333333,0.000134,,
0.5,0.00015,,
0.5006666666666667,0.000171,,
0.5013333333333333,0.000163,,
0.502,0.000158,,
0.5026666666666666,0.000155,,
0.5033333333333333,0.000184,,
0.504,0.000178,,
0.5046666666666666,0.000221,,
0.5053333333333333,0.000243,,
0.506,0.000263,,
0.5066666666666666,0.000258,,
0.5073333333333333,0.000239,,
0.508,0.000214,,
0.5086666666666666,0.000178,,
0.5093333333333333,8.9e-05,,
0.51,-1.4e-05,,
0.5106666666666666,-0.000131,,
0.5113333333333333,-0.000217,,
0.512,-0.000267,,
0.5126666666666666,-0.000315,,
0.5133333333333333,-0.000377,,
0.514,-0.000443,,
0.5146666666666666,-0.000494,,
0.5153333333333333,-0.000504,,
0.516,-0.000478,,
0.5166666666666666,-0.000356,,
0.5173333333333333,-0.000163,,
0.518,6.2e-05,,
0.5186666666666666,0.000139,,
0.5193333333333333,0.000161,,
0.52,0.000189,,
0.5206666666666666,0.000225,,
0.5213333333333333,0.000238,,
0.522,0.000233,,
0.5226666666666666,0.000219,,
0.5233333333333333,0.000235,,
0.524,0.000252,,
0.5246666666666666,0.000301,,
0.5253333333333333,0.000295,,
0.526,0.000258,,
0.5266666666666666,0.000264,,
0.5273333333333333,0.000277,,
0.528,0.000279,,
0.5286666666666666,0.000235,,
0.5293333333333333,0.000117,,
0.53,1.4e-05,,
0.5306666666666666,-8.6e-05,,
0.5313333333333333,-0.000185,,
0.532,-0.000262,,
0.5326666666666666,-0.000298,,
0.5333333333333333,-0.000362,,
0.534,-0.00043,,
0.5346666666666666,-0.000461,,
0.5353333333333333,-0.000451,,
0.536,-0.000426,,
0.5366666666666666,-0.000289,,
0.5373333333333333,-0.000102,,
0.538,0.000156,,
0.5386666666666666,0.000203,,
0.5393333333333333,0.0002,,
0.54,0.000203,,
0.5406666666666666,0.000161,,
0.5413333333333333,0.00014,,
0.542,0.00016,,
0.5426666666666666,0.000191,,
0.5433333333333333,0.000219,,
0.5439999999999999,0.000229,,
0.5446666666666666,0.000278,,
0.5453333333333333,0.000283,,
0.5459999999999999,0.000296,,
0.5466666666666666,0.000302,,
0.5473333333333333,0.000311,,
0.5479999999999999,0.000304,,
0.5486666666666666,0.000238,,
0.5493333333333333,0.000157,,
0.5499999999999999,5.8e-05,,
0.5506666666666666,-4.7e-05,,
0.5513333333333333,-0.000143,,
0.5519999999999999,-0.000234,,
0.5526666666666666,-0.00033,,
0.5533333333333333,-0.0004,,
0.5539999999999999,-0.000508,,
0.5546666666666666,-0.000557,,
0.5553333333333333,-0.00053,,
0.5559999999999999,-0.000461,,
0.5566666666666666,-0.000332,,
0.5573333333333333,-0.000127,,
0.5579999999999999,0.00017,,
0.5586666666666666,0.000286,,
0.5593333333333333,0.000286,,
0.5599999999999999,0.000267,,
0.5606666666666666,0.00025,,
0.5613333333333334,0.000219,,
0.5619999999999999,0.000207,,
0.5626666666666666,0.000235,,
0.5633333333333334,0.000242,,
0.564,0.000235,,
0.5646666666666667,0.000254,,
0.5653333333333334,0.000254,,
0.566,0.000263,,
0.5666666666666667,0.00026,,
0.5673333333333334,0.000249,,
0.568,0.000252,,
0.5686666666666667,0.000229,,
0.5693333333333334,0.000148,,
0.57,4.3e-05,,
0.5706666666666667,-8e-05,,
0.5713333333333334,-0.000185,,
0.572,-0.000274,,
0.5726666666666667,-0.000359,,
0.5733333333333334,-0.000417,,
0.574,-0.000466,,
0.5746666666666667,-0.000485,,
0.5753333333333334,-0.000491,,
0.576,-0.000453,,
0.5766666666666667,-0.000316,,
0.5773333333333334,-0.00013,,
0.578,9e-05,,
0.5786666666666667,0.000165,,
0.5793333333333334,0.000199,,
0.58,0.000217,,
0.5806666666666667,0.000234,,
0.5813333333333334,0.000225,,
0.582,0.000232,,
0.5826666666666667,0.000226,,
0.5833333333333333,0.000221,,
0.584,0.00021,,
0.5846666666666667,0.000257,,
0.5853333333333333,0.000269,,
0.586,0.000274,,
0.5866666666666667,0.000239,,
0.5873333333333333,0.0002,,
0.588,0.000197,,
0.5886666666666667,0.00017,,
0.5893333333333333,7.2e-05,,
0.59,1.4e-05,,
0.5906666666666667,-7.2e-05,,
0.5913333333333333,-0.000179,,
0.592,-0.000279,,
0.5926666666666667,-0.000346,,
0.5933333333333333,-0.000423,,
0.594,-0.000513,,
0.5946666666666667,-0.000554,,
0.5953333333333333,-0.000544,,
0.596,-0.0005,,
0.5966666666666667,-0.000364,,
0.5973333333333333,-0.000189,,
0.598,4.4e-05,,
0.5986666666666667,0.000128,,
0.5993333333333333,0.000147,,
0.6,0.000175,,
0.6006666666666667,0.000171,,
0.6013333333333333,0.000177,,
0.602,0.000196,,
0.6026666666666667,0.000196,,
0.6033333333333333,0.000217,,
0.604,0.000206,,
0.6046666666666667,0.000217,,
0.6053333333333333,0.00021,,
0.606,0.00021,,
0.6066666666666667,0.000206,,
0.6073333333333333,0.000219,,
0.608,0.000202,,
0.6086666666666667,0.000111,,
0.6093333333333333,-1.8e-05,,
0.61,-0.000115,,
0.6106666666666667,-0.000199,,
0.6113333333333333,-0.000244,,
0.612,-0.000317,,
0.6126666666666667,-0.000408,,
0.6133333333333333,-0.000495,,
0.614,-0.000537,,
0.6146666666666667,-0.000506,,
0.6153333333333333,-0.000474,,
0.616,-0.000431,,
0.6166666666666667,-0.000283,,
0.6173333333333333,-0.00014,,
0.618,5.2e-05,,
0.6186666666666667,0.000103,,
0.6193333333333333,0.000124,,
0.62,0.000136,,
0.6206666666666667,0.000139,,
0.6213333333333333,0.000142,,
0.622,0.000155,,
0.6226666666666666,0.000182,,
0.6233333333333333,0.00021,,
0.624,0.000217,,
0.6246666666666666,0.000262,,
0.6253333333333333,0.00026,,
0.626,0.000229,,
0.6266666666666666,0.000185,,
0.6273333333333333,0.000136,,
0.628,0.000123,,
0.6286666666666666,8.7e-05,,
0.6293333333333333,6e-06,,
0.63,-8e-05,,
0.6306666666666666,-0.00014,,
0.6313333333333333,-0.000245,,
0.632,-0.000385,,
0.6326666666666666,-0.000471,,
0.6333333333333333,-0.000485,,
0.634,-0.000493,,
0.6346666666666666,-0.000488,,
0.6353333333333333,-0.000485,,
0.636,-0.000411,,
0.6366666666666666,-0.000261,,
0.6373333333333333,-7.9e-05,,
0.638,0.000106,,
0.6386666666666666,0.000164,,
0.6393333333333333,0.000159,,
0.64,0.000155,,
0.6406666666666666,0.000181,,
0.6413333333333333,0.000205,,
0.642,0.000181,,
0.6426666666666666,0.000155,,
0.6433333333333333,0.000158,,
0.644,0.000158,,
0.6446666666666666,0.000208,,
0.6453333333333333,0.000224,,
0.646,0.000229,,
0.6466666666666666,0.000221,,
0.6473333333333333,0.00019,,
0.648,0.000159,,
0.6486666666666666,9.8e-05,,
0.6493333333333333,6e-06,,
0.65,-9.3e-05,,
0.6506666666666666,-0.000187,,
0.6513333333333333,-0.000273,,
0.652,-0.000344,,
0.6526666666666666,-0.000413,,
0.6533333333333333,-0.000466,,
0.654,-0.000518,,
0.6546666666666666,-0.000531,,
0.6553333333333333,-0.000496,,
0.656,-0.000436,,
0.6566666666666666,-0.0003,,
0.6573333333333333,-0.000157,,
0.658,-1.4e-05,,
0.6586666666666666,1.8e-05,,
0.6593333333333333,5e-05,,
0.66,6.7e-05,,
0.6606666666666666,0.000109,,
0.6613333333333333,0.000159,,
0.662,0.000193,,
0.6626666666666666,0.000196,,
0.6633333333333333,0.000228,,
0.6639999999999999,0.000293,,
0.6646666666666666,0.000304,,
0.6653333333333333,0.000252,,
0.6659999999999999,0.000203,,
0.6666666666666666,0.00015,,
0.6673333333333333,0.000117,,
0.6679999999999999,9.8e-05,,
0.6686666666666666,3.8e-05,,
0.6693333333333333,-5e-06,,
0.6699999999999999,-3.8e-05,,
0.6706666666666666,-0.000119,,
0.6713333333333333,-0.000214,,
0.6719999999999999,-0.000337,,
0.6726666666666666,-0.000449,,
0.6733333333333333,-0.000522,,
0.6739999999999999,-0.000563,,
0.6746666666666666,-0.000555,,
0.6753333333333333,-0.000529,,
0.6759999999999999,-0.000447,,
0.6766666666666666,-0.000312,,
0.6773333333333333,-0.000148,,
0.6779999999999999,3.9e-05,,
0.6786666666666666,8.3e-05,,
0.6793333333333333,7.3e-05,,
0.6799999999999999,7.4e-05,,
0.6806666666666666,0.0001,,
0.6813333333333333,0.000124,,
0.6819999999999999,0.000138,,
0.6826666666666666,0.000144,,
0.6833333333333333,0.000134,,
0.6839999999999999,0.000147,,
0.6846666666666666,0.000189,,
0.6853333333333333,0.000182,,
0.6859999999999999,0.000153,,
0.6866666666666666,0.000123,,
0.6873333333333334,0.000109,,
0.688,9.8e-05,,
0.6886666666666666,3.2e-05,,
0.6893333333333334,-4.6e-05,,
0.69,-0.000148,,
0.6906666666666667,-0.000244,,
0.6913333333333334,-0.000303,,
0.692,-0.000326,,
0.6926666666666667,-0.000335,,
0.6933333333333334,-0.000368,,
0.694,-0.000451,,
0.6946666666666667,-0.000497,,
0.6953333333333334,-0.000539,,
0.696,-0.000524,,
0.6966666666666667,-0.000362,,
0.6973333333333334,-0.000159,,
0.698,4.4e-05,,
0.6986666666666667,0.000132,,
0.6993333333333334,0.000174,,
0.7,0.000133,,
0.7006666666666667,0.000119,,
0.7013333333333334,0.000152,,
0.702,0.000152,,
0.7026666666666667,0.000136,,
0.7033333333333333,0.00012,,
0.704,0.000135,,
0.7046666666666667,0.000164,,
0.7053333333333333,0.00017,,
0.706,0.000183,,
0.7066666666666667,0.00015,,
0.7073333333333333,0.000133,,
0.708,0.000143,,
0.7086666666666667,0.000101,,
0.7093333333333333,5e-06,,
0.71,-8.1e-05,,
0.7106666666666667,-0.000159,,
0.7113333333333333,-0.000268,,
0.712,-0.000376,,
0.7126666666666667,-0.000453,,
0.7133333333333333,-0.000516,,
0.714,-0.000559,,
0.7146666666666667,-0.00057,,
0.7153333333333333,-0.000582,,
0.716,-0.000506,,
0.7166666666666667,-0.000307,,
0.7173333333333333,-8.3e-05,,
0.718,9.4e-05,,
0.7186666666666667,0.00011,,
0.7193333333333333,0.000101,,
0.72,0.000103,,
0.7206666666666667,0.000141,,
0.7213333333333333,0.000163,,
0.722,0.00017,,
0.7226666666666667,0.000185,,
0.7233333333333333,0.000218,,
0.724,0.000222,,
0.7246666666666667,0.000242,,
0.7253333333333333,0.000222,,
0.726,0.000178,,
0.7266666666666667,0.000167,,
0.7273333333333333,0.000159,,
0.728,0.000148,,
0.7286666666666667,8.7e-05,,
0.7293333333333333,1e-05,,
0.73,-6.7e-05,,
0.7306666666666667,-0.000153,,
0.7313333333333333,-0.000234,,
0.732,-0.000345,,
0.7326666666666667,-0.000448,,
0.7333333333333333,-0.000538,,
0.734,-0.000616,,
0.7346666666666667,-0.000633,,
0.7353333333333333,-0.00062,,
0.736,-0.000529,,
0.7366666666666667,-0.000372,,
0.7373333333333333,-0.000196,,
0.738,-3.8e-05,,
0.7386666666666667,1.7e-05,,
0.7393333333333333,4.2e-05,,
0.74,3.4e-05,,
0.7406666666666667,3.2e-05,,
0.7413333333333333,7.8e-05,,
0.742,0.000151,,
0.7426666666666667,0.0002,,
0.7433333333333333,0.000203,,
0.744,0.000189,,
0.7446666666666666,0.000178,,
0.7453333333333333,0.000136,,
0.746,0.000151,,
0.7466666666666666,0.000147,,
0.7473333333333333,0.000103,,
0.748,5.3e-05,,
0.7486666666666666,2.5e-05,,
0.7493333333333333,-2e-06,,
0.75,-6.5e-05,,
0.7506666666666666,-0.000149,,
0.7513333333333333,-0.00025,,
0.752,-0.000335,,
0.7526666666666666,-0.000397,,
0.7533333333333333,-0.000459,,
0.754,-0.000519,,
0.7546666666666666,-0.000543,,
0.7553333333333333,-0.000506,,
0.756,-0.000412,,
0.7566666666666666,-0.000249,,
0.7573333333333333,-6.3e-05,,
0.758,8.4e-05,,
0.7586666666666666,0.000115,,
0.7593333333333333,0.000134,,
0.76,0.000148,,
0.7606666666666666,0.000139,,
0.7613333333333333,0.000145,,
0.762,0.000161,,
0.7626666666666666,0.00016,,
0.7633333333333333,0.000121,,
0.764,0.000132,,
0.7646666666666666,0.000183,,
0.7653333333333333,0.000211,,
0.766,0.0002,,
0.7666666666666666,0.000172,,
0.7673333333333333,0.000156,,
0.768,0.000134,,
0.7686666666666666,8.6e-05,,
0.7693333333333333,2e-05,,
0.77,-7e-05,,
0.7706666666666666,-0.000174,,
0.7713333333333333,-0.000275,,
0.772,-0.000361,,
0.7726666666666666,-0.000445,,
0.7733333333333333,-0.000522,,
0.774,-0.000561,,
0.7746666666666666,-0.000584,,
0.7753333333333333,-0.000555,,
0.776,-0.000454,,
0.7766666666666666,-0.000301,,
0.7773333333333333,-8.4e-05,,
0.778,8e-05,,
0.7786666666666666,0.00011,,
0.7793333333333333,0.000102,,
0.78,0.0001,,
0.7806666666666666,9.7e-05,,
0.7813333333333333,0.000103,,
0.782,0.0001,,
0.7826666666666666,0.000104,,
0.7833333333333333,0.000125,,
0.7839999999999999,0.000179,,
0.7846666666666666,0.000232,,
0.7853333333333333,0.000224,,
0.7859999999999999,0.000153,,
0.7866666666666666,0.000145,,
0.7873333333333333,0.000203,,
0.7879999999999999,0.000265,,
0.7886666666666666,0.000228,,
0.7893333333333333,0.000115,,
0.7899999999999999,-2e-06,,
0.7906666666666666,-0.000125,,
0.7913333333333333,-0.000255,,
0.7919999999999999,-0.000376,,
0.7926666666666666,-0.000455,,
0.7933333333333333,-0.00051,,
0.7939999999999999,-0.000543,,
0.7946666666666666,-0.00056,,
0.7953333333333333,-0.000527,,
0.7959999999999999,-0.000393,,
0.7966666666666666,-0.000254,,
0.7973333333333333,-0.000106,,
0.7979999999999999,7e-06,,
0.7986666666666666,8.8e-05,,
0.7993333333333333,0.000141,,
0.7999999999999999,0.000128,,
0.8006666666666666,0.00011,,
0.8013333333333333,0.000131,,
0.8019999999999999,0.000144,,
0.8026666666666666,0.000169,,
0.8033333333333333,0.000175,,
0.8039999999999999,0.000216,,
0.8046666666666666,0.000214,,
0.8053333333333333,0.000228,,
0.8059999999999999,0.000222,,
0.8066666666666666,0.000178,,
0.8073333333333333,0.000147,,
0.8079999999999999,0.000141,,
0.8086666666666666,0.000111,,
0.8093333333333333,2.9e-05,,
0.8099999999999999,-7.4e-05,,
0.8106666666666666,-0.000181,,
0.8113333333333334,-0.000294,,
0.8119999999999999,-0.00035,,
0.8126666666666666,-0.00037,,
0.8133333333333334,-0.000425,,
0.814,-0.000469,,
0.8146666666666667,-0.000493,,
0.8153333333333334,-0.00048,,
0.816,-0.00037,,
0.8166666666666667,-0.000199,,
0.8173333333333334,-1.8e-05,,
0.818,0.000116,,
0.8186666666666667,0.000163,,
0.8193333333333334,0.00015,,
0.82,0.000155,,
0.8206666666666667,0.000153,,
0.8213333333333334,0.00017,,
0.822,0.000197,,
0.8226666666666667,0.000219,,
0.8233333333333333,0.000216,,
0.824,0.000202,,
0.8246666666666667,0.000243,,
0.8253333333333333,0.000247,,
0.826,0.000212,,
0.8266666666666667,0.00017,,
0.8273333333333333,0.000128,,
0.828,0.00014,,
0.8286666666666667,0.000142,,
0.8293333333333333,9.8e-05,,
0.83,2.6e-05,,
0.8306666666666667,-9.7e-05,,
0.8313333333333333,-0.000215,,
0.832,-0.000348,,
0.8326666666666667,-0.000444,,
0.8333333333333333,-0.000505,,
0.834,-0.000481,,
0.8346666666666667,-0.00047,,
0.8353333333333333,-0.000419,,
0.836,-0.000315,,
0.8366666666666667,-0.000177,,
0.8373333333333333,-1.1e-05,,
0.838,0.000115,,
0.8386666666666667,0.000136,,
0.8393333333333333,0.000114,,
0.84,0.000108,,
0.8406666666666667,0.000148,,
0.8413333333333333,0.000165,,
0.842,0.00019,,
0.8426666666666667,0.000205,,
0.8433333333333333,0.000217,,
0.844,0.000231,,
0.8446666666666667,0.000223,,
0.8453333333333333,0.000236,,
0.846,0.00026,,
0.8466666666666667,0.000243,,
0.8473333333333333,0.000197,,
0.848,0.000133,,
0.8486666666666667,2.4e-05,,
0.8493333333333333,-0.000102,,
0.85,-0.000211,,
0.8506666666666667,-0.000287,,
0.8513333333333333,-0.000303,,
0.852,-0.000378,,
0.8526666666666667,-0.000452,,
0.8533333333333333,-0.000453,,
0.854,-0.000455,,
0.8546666666666667,-0.00047,,
0.8553333333333333,-0.000493,,
0.856,-0.000399,,
0.8566666666666667,-0.000248,,
0.8573333333333333,-7.8e-05,,
0.858,3.6e-05,,
0.8586666666666667,7.3e-05,,
0.8593333333333333,7.4e-05,,
0.86,8.9e-05,,
0.8606666666666667,0.000137,,
0.8613333333333333,0.00016,,
0.862,0.000169,,
0.8626666666666667,0.000201,,
0.8633333333333333,0.000228,,
0.864,0.000279,,
0.8646666666666666,0.00025,,
0.8653333333333333,0.000171,,
0.866,0.000149,,
0.8666666666666666,0.000148,,
0.8673333333333333,0.000201,,
0.868,0.000174,,
0.8686666666666666,7e-05,,
0.8693333333333333,-7.4e-05,,
0.87,-0.000201,,
0.8706666666666666,-0.000284,,
0.8713333333333333,-0.000353,,
0.872,-0.000406,,
0.8726666666666666,-0.000417,,
0.8733333333333333,-0.000417,,
0.874,-0.000421,,
0.8746666666666666,-0.000387,,
0.8753333333333333,-0.000366,,
0.876,-0.000279,,
0.8766666666666666,-0.000118,,
0.8773333333333333,6.7e-05,,
0.878,0.000152,,
0.8786666666666666,0.000163,,
0.8793333333333333,0.000175,,
0.88,0.000183,,
0.8806666666666666,0.000201,,
0.8813333333333333,0.000197,,
0.882,0.000172,,
0.8826666666666666,0.00013,,
0.8833333333333333,0.000104,,
0.884,0.000161,,
0.8846666666666666,0.000236,,
0.8853333333333333,0.000266,,
0.886,0.000294,,
0.8866666666666666,0.000284,,
0.8873333333333333,0.000226,,
0.888,0.000144,,
0.8886666666666666,6.4e-05,,
0.8893333333333333,1.2e-05,,
0.89,-1.4e-05,,
0.8906666666666666,-0.00012,,
0.8913333333333333,-0.000242,,
0.892,-0.000378,,
0.8926666666666666,-0.000483,,
0.8933333333333333,-0.000535,,
0.894,-0.000552,,
0.8946666666666666,-0.000538,,
0.8953333333333333,-0.000501,,
0.896,-0.000386,,
0.8966666666666666,-0.000241,,
0.8973333333333333,-1.5e-05,,
0.898,0.000155,,
0.8986666666666666,0.000191,,
0.8993333333333333,0.000186,,
0.9,0.000192,,
0.9006666666666666,0.000193,,
0.9013333333333332,0.00021,,
0.902,0.000203,,
0.9026666666666666,0.000187,,
0.9033333333333332,0.000158,,
0.904,0.000223,,
0.9046666666666666,0.000314,,
0.9053333333333332,0.000347,,
0.906,0.000329,,
0.9066666666666666,0.000266,,
0.9073333333333332,0.000253,,
0.908,0.000215,,
0.9086666666666666,0.000138,,
0.9093333333333332,6.6e-05,,
0.91,-3.2e-05,,
0.9106666666666666,-0.000129,,
0.9113333333333332,-0.000231,,
0.912,-0.000358,,
0.9126666666666666,-0.000425,,
0.9133333333333332,-0.000433,,
0.914,-0.000449,,
0.9146666666666666,-0.000458,,
0.9153333333333332,-0.000461,,
0.916,-0.000356,,
0.9166666666666666,-0.000236,,
0.9173333333333332,-5e-05,,
0.918,0.0001,,
0.9186666666666666,0.000169,,
0.9193333333333332,0.000183,,
0.92,0.000194,,
0.9206666666666666,0.000193,,
0.9213333333333332,0.000185,,
0.922,0.000184,,
0.9226666666666666,0.000196,,
0.9233333333333332,0.000203,,
0.924,0.000222,,
0.9246666666666666,0.000247,,
0.9253333333333332,0.000215,,
0.926,0.000192,,
0.9266666666666666,0.000202,,
0.9273333333333332,0.000211,,
0.928,0.00018,,
0.9286666666666666,8.2e-05,,
0.9293333333333332,-1.1e-05,,
0.93,-7.3e-05,,
0.9306666666666666,-0.000168,,
0.9313333333333332,-0.000272,,
0.932,-0.000365,,
0.9326666666666666,-0.000438,,
0.9333333333333332,-0.000504,,
0.934,-0.000508,,
0.9346666666666666,-0.0005,,
0.9353333333333332,-0.000516,,
0.936,-0.00045,,
0.9366666666666666,-0.000284,,
0.9373333333333334,-6.9e-05,,
0.938,5.9e-05,,
0.9386666666666666,8.7e-05,,
0.9393333333333334,0.000111,,
0.94,0.000155,,
0.9406666666666668,0.000161,,
0.9413333333333334,0.000162,,
0.942,0.000176,,
0.9426666666666668,0.000195,,
0.9433333333333334,0.000188,,
0.944,0.00021,,
0.9446666666666668,0.000248,,
0.9453333333333332,0.000244,,
0.946,0.000222,,
0.9466666666666668,0.000178,,
0.9473333333333332,0.000166,,
0.948,0.000125,,
0.9486666666666668,2.8e-05,,
0.9493333333333333,-6.9e-05,,
0.95,-0.00017,,
0.9506666666666668,-0.000248,,
0.9513333333333333,-0.000297,,
0.952,-0.000341,,
0.9526666666666668,-0.000424,,
0.9533333333333333,-0.000516,,
0.954,-0.000585,,
0.9546666666666668,-0.000608,,
0.9553333333333331,-0.000528,,
0.956,-0.000345,,
0.9566666666666668,-0.000167,,
0.9573333333333331,4e-05,,
0.958,0.000126,,
0.9586666666666668,0.000112,,
0.9593333333333331,9.3e-05,,
0.96,8.6e-05,,
0.9606666666666668,9.6e-05,,
0.9613333333333332,0.000123,,
0.962,0.000174,,
0.9626666666666668,0.000255,,
0.9633333333333332,0.000231,,
0.964,0.000201,,
0.9646666666666668,0.00018,,
0.9653333333333332,0.000161,,
0.966,0.000172,,
0.9666666666666668,0.000168,,
0.9673333333333332,0.000118,,
0.968,2.5e-05,,
0.9686666666666668,-8e-05,,
0.9693333333333332,-0.000152,,
0.97,-0.000158,,
0.9706666666666668,-0.000169,,
0.9713333333333332,-0.00019,,
0.972,-0.000222,,
0.9726666666666668,-0.000275,,
0.9733333333333332,-0.000353,,
0.974,-0.000425,,
0.9746666666666668,-0.000484,,
0.9753333333333332,-0.000463,,
0.976,-0.00033,,
0.9766666666666668,-0.000146,,
0.9773333333333332,8.7e-05,,
0.978,0.000163,,
0.9786666666666668,0.000181,,
0.9793333333333332,0.000186,,
0.98,0.000206,,
0.9806666666666668,0.000217,,
0.9813333333333332,0.000199,,
0.982,0.000202,,
0.9826666666666668,0.000203,,
0.9833333333333332,0.000179,,
0.984,0.000205,,
0.9846666666666666,0.000231,,
0.9853333333333332,0.000231,,
0.986,0.000224,,
0.9866666666666666,0.000216,,
0.9873333333333332,0.000215,,
0.988,0.000169,,
0.9886666666666666,9.5e-05,,
0.9893333333333332,1.4e-05,,
0.99,-6.5e-05,,
0.9906666666666666,-0.00017,,
0.9913333333333332,-0.000302,,
0.992,-0.000414,,
0.9926666666666666,-0.00049,,
0.9933333333333332,-0.000542,,
0.994,-0.00054,,
0.9946666666666666,-0.000527,,
0.9953333333333332,-0.000466,,
0.996,-0.000347,,
0.9966666666666666,-0.000203,,
0.9973333333333332,-1.2e-05,,
0.998,9.4e-05,,
0.9986666666666666,0.00015,,
0.9993333333333332,0.000225,,
1.0,0.000254,,
1.0006666666666666,0.000255,,
1.0013333333333334,0.000221,,
1.002,0.000204,,
1.0026666666666666,0.000203,,
1.0033333333333334,0.000175,,
1.004,0.000197,,
1.0046666666666666,0.000227,,
1.0053333333333332,0.000208,,
1.006,0.000179,,
1.0066666666666666,0.00015,,
1.0073333333333332,0.000167,,
1.008,0.000157,,
1.0086666666666666,9.7e-05,,
1.0093333333333332,-5e-06,,
1.01,-0.000117,,
1.0106666666666666,-0.000214,,
1.0113333333333332,-0.00027,,
1.012,-0.000353,,
1.0126666666666666,-0.000438,,
1.0133333333333332,-0.000518,,
1.014,-0.000551,,
1.0146666666666666,-0.000565,,
1.0153333333333332,-0.000547,,
1.016,-0.000433,,
1.0166666666666666,-0.000265,,
1.0173333333333332,-6e-06,,
1.018,0.000123,,
1.0186666666666666,0.000144,,
1.0193333333333332,0.000136,,
1.02,0.000135,,
1.0206666666666666,0.000161,,
1.0213333333333332,0.000219,,
1.022,0.00025,,
1.0226666666666666,0.000227,,
1.0233333333333332,0.000191,,
1.024,0.000217,,
1.0246666666666666,0.000255,,
1.0253333333333332,0.000271,,
1.026,0.000269,,
1.0266666666666666,0.000248,,
1.0273333333333332,0.00025,,
1.028,0.000188,,
1.0286666666666666,0.000104,,
1.0293333333333332,-2.9e-05,,
1.03,-0.000106,,
1.0306666666666666,-0.000159,,
1.0313333333333332,-0.00021,,
1.032,-0.000342,,
1.0326666666666666,-0.000453,,
1.0333333333333332,-0.000544,,
1.034,-0.000566,,
1.0346666666666666,-0.000564,,
1.0353333333333332,-0.000528,,
1.036,-0.000414,,
1.0366666666666666,-0.000256,,
1.0373333333333332,-3.7e-05,,
1.038,8.8e-05,,
1.0386666666666666,0.000132,,
1.0393333333333332,0.000142,,
1.04,0.000141,,
1.0406666666666666,0.000129,,
1.0413333333333332,0.000147,,
1.042,0.000157,,
1.0426666666666666,0.000131,,
1.0433333333333332,0.000124,,
1.044,0.00015,,
1.0446666666666666,0.000155,,
1.0453333333333332,0.000147,,
1.046,0.000147,,
1.0466666666666666,0.00012,,
1.0473333333333332,0.000121,,
1.048,0.000127,,
1.0486666666666666,9.6e-05,,
1.0493333333333332,3e-05,,
1.05,-5.1e-05,,
1.0506666666666666,-0.000165,,
1.0513333333333332,-0.000279,,
1.052,-0.000388,,
1.0526666666666666,-0.000476,,
1.0533333333333332,-0.000528,,
1.054,-0.000591,,
1.0546666666666666,-0.000657,,
1.0553333333333332,-0.000631,,
1.056,-0.000428,,
1.0566666666666666,-0.000185,,
1.0573333333333332,7e-05,,
1.058,0.000172,,
1.0586666666666666,0.000242,,
1.0593333333333332,0.000278,,
1.06,0.000247,,
1.0606666666666666,0.000211,,
1.0613333333333332,0.000202,,
1.062,0.000174,,
1.0626666666666666,0.000166,,
1.0633333333333332,0.000187,,
1.064,0.000236,,
1.0646666666666669,0.000275,,
1.0653333333333332,0.00031,,
1.066,0.000307,,
1.0666666666666669,0.000275,,
1.0673333333333332,0.00026,,
1.068,0.000211,,
1.0686666666666669,9.2e-05,,
1.0693333333333332,-4e-06,,
1.07,-0.000104,,
1.0706666666666669,-0.000166,,
1.0713333333333332,-0.000229,,
1.072,-0.000306,,
1.0726666666666669,-0.000364,,
1.0733333333333333,-0.000423,,
1.074,-0.000468,,
1.0746666666666669,-0.000493,,
1.0753333333333333,-0.000466,,
1.076,-0.00033,,
1.0766666666666669,-0.000141,,
1.0773333333333333,7.8e-05,,
1.078,0.000115,,
1.0786666666666669,7e-05,,
1.0793333333333333,5.2e-05,,
1.08,7.9e-05,,
1.0806666666666669,0.000124,,
1.0813333333333333,0.000164,,
1.082,0.000176,,
1.0826666666666669,0.000211,,
1.0833333333333333,0.000239,,
1.084,0.000255,,
1.084666666666667,0.000233,,
1.0853333333333333,0.000195,,
1.086,0.000168,,
1.086666666666667,0.000188,,
1.0873333333333333,0.000214,,
1.088,0.000145,,
1.088666666666667,4.5e-05,,
1.0893333333333333,-3.9e-05,,
1.09,-0.000129,,
1.090666666666667,-0.00024,,
1.0913333333333333,-0.000355,,
1.092,-0.000439,,
1.092666666666667,-0.000482,,
1.0933333333333333,-0.000521,,
1.094,-0.000541,,
1.094666666666667,-0.000526,,
1.0953333333333333,-0.000488,,
1.096,-0.000342,,
1.096666666666667,-0.000184,,
1.0973333333333333,1.2e-05,,
1.098,9.5e-05,,
1.098666666666667,0.000149,,
1.0993333333333333,0.000159,,
1.1,0.000159,,
1.100666666666667,0.000155,,
1.1013333333333333,0.000166,,
1.102,0.000177,,
1.102666666666667,0.000158,,
1.1033333333333333,0.000172,,
1.104,0.000215,,
1.104666666666667,0.000225,,
1.1053333333333333,0.000202,,
1.106,0.000178,,
1.106666666666667,0.000169,,
1.1073333333333333,0.000174,,
1.108,0.000116,,
1.1086666666666667,3.7e-05,,
1.1093333333333333,-6e-05,,
1.11,-0.000165,,
1.1106666666666667,-0.000248,,
1.1113333333333333,-0.000347,,
1.112,-0.00045,,
1.1126666666666667,-0.000508,,
1.1133333333333333,-0.000538,,
1.114,-0.000519,,
1.1146666666666667,-0.000545,,
1.1153333333333333,-0.000513,,
1.116,-0.000374,,
1.1166666666666667,-0.000163,,
1.1173333333333333,9.5e-05,,
1.118,0.000197,,
1.1186666666666667,0.000214,,
1.1193333333333333,0.000191,,
1.12,0.000166,,
1.1206666666666667,0.000175,,
1.1213333333333333,0.000172,,
1.122,0.000158,,
1.1226666666666667,0.000153,,
1.1233333333333333,0.000155,,
1.124,0.000197,,
1.1246666666666667,0.000239,,
1.1253333333333333,0.000257,,
1.126,0.00025,,
1.1266666666666667,0.000231,,
1.1273333333333333,0.000231,,
1.128,0.000172,,
1.1286666666666667,9.2e-05,,
1.1293333333333333,-5e-06,,
1.13,-0.000102,,
1.1306666666666667,-0.000179,,
1.1313333333333333,-0.000237,,
1.132,-0.000316,,
1.1326666666666667,-0.000398,,
1.1333333333333333,-0.000497,,
1.134,-0.000555,,
1.1346666666666667,-0.000571,,
1.1353333333333333,-0.000524,,
1.136,-0.000406,,
1.1366666666666667,-0.000239,,
1.1373333333333333,-1.1e-05,,
1.138,8.3e-05,,
1.1386666666666667,0.000148,,
1.1393333333333333,0.000181,,
1.14,0.000163,,
1.1406666666666667,0.000147,,
1.1413333333333333,0.000128,,
1.142,0.000112,,
1.1426666666666667,9.2e-05,,
1.143333333333333,6.2e-05,,
1.144,7.3e-05,,
1.1446666666666667,0.000127,,
1.145333333333333,0.000179,,
1.146,0.000147,,
1.1466666666666667,0.00013,,
1.147333333333333,0.000189,,
1.148,0.000159,,
1.1486666666666667,7.2e-05,,
1.149333333333333,-2.9e-05,,
1.15,-0.000121,,
1.1506666666666667,-0.000206,,
1.151333333333333,-0.00024,,
1.152,-0.000295,,
1.1526666666666667,-0.000349,,
1.153333333333333,-0.000457,,
1.154,-0.000527,,
1.1546666666666667,-0.00054,,
1.155333333333333,-0.000489,,
1.156,-0.000376,,
1.1566666666666667,-0.000232,,
1.157333333333333,-1.6e-05,,
1.158,0.000117,,
1.1586666666666667,0.000179,,
1.159333333333333,0.000196,,
1.16,0.000174,,
1.1606666666666667,0.000205,,
1.161333333333333,0.000234,,
1.162,0.000268,,
1.1626666666666667,0.000249,,
1.163333333333333,0.00023,,
1.164,0.000236,,
1.1646666666666663,0.000247,,
1.165333333333333,0.000242,,
1.166,0.000232,,
1.1666666666666663,0.000216,,
1.1673333333333331,0.000201,,
1.168,0.000131,,
1.1686666666666663,4.5e-05,,
1.1693333333333331,-4.1e-05,,
1.17,-0.000137,,
1.1706666666666663,-0.000275,,
1.1713333333333331,-0.00032,,
1.172,-0.000354,,
1.1726666666666663,-0.0004,,
1.1733333333333331,-0.000472,,
1.174,-0.000499,,
1.1746666666666663,-0.000491,,
1.1753333333333331,-0.000444,,
1.176,-0.00033,,
1.1766666666666663,-0.00019,,
1.1773333333333331,1.5e-05,,
1.178,4.3e-05,,
1.1786666666666663,4.3e-05,,
1.1793333333333331,6.6e-05,,
1.18,0.000106,,
1.1806666666666663,0.000113,,
1.1813333333333331,0.000115,,
1.182,9.5e-05,,
1.1826666666666663,7.1e-05,,
1.1833333333333331,9.4e-05,,
1.184,0.000106,,
1.1846666666666663,0.00013,,
1.1853333333333331,0.000164,,
1.186,0.000171,,
1.1866666666666663,0.000142,,
1.1873333333333334,9.5e-05,,
1.188,3.9e-05,,
1.1886666666666663,-1.6e-05,,
1.1893333333333334,-7.6e-05,,
1.19,-0.0001,,
1.1906666666666663,-0.000175,,
1.1913333333333334,-0.000281,,
1.192,-0.000365,,
1.1926666666666663,-0.000417,,
1.1933333333333334,-0.000457,,
1.194,-0.000433,,
1.1946666666666663,-0.000411,,
1.1953333333333334,-0.000372,,
1.196,-0.000268,,
1.1966666666666663,-0.000152,,
1.1973333333333334,2e-05,,
1.198,0.000128,,
1.1986666666666663,0.000157,,
1.1993333333333334,0.00013,,
1.2,0.000109,,
1.2006666666666663,0.00015,,
1.2013333333333334,0.000207,,
1.202,0.000238,,
1.2026666666666666,0.000244,,
1.2033333333333334,0.000228,,
1.204,0.000263,,
1.2046666666666666,0.000263,,
1.2053333333333334,0.000244,,
1.206,0.000225,,
1.2066666666666666,0.000219,,
1.2073333333333334,0.000197,,
1.208,9.4e-05,,
1.2086666666666666,-5e-06,,
1.2093333333333334,-5.6e-05,,
1.21,-9.6e-05,,
1.2106666666666666,-0.000187,,
1.2113333333333334,-0.000303,,
1.212,-0.000381,,
1.2126666666666666,-0.000459,,
1.2133333333333334,-0.000538,,
1.214,-0.000518,,
1.2146666666666666,-0.000507,,
1.2153333333333334,-0.000479,,
1.216,-0.000312,,
1.2166666666666666,-6.9e-05,,
1.2173333333333334,0.000131,,
1.218,0.00015,,
1.2186666666666666,0.000138,,
1.2193333333333334,0.000134,,
1.22,0.000145,,
1.2206666666666666,9.2e-05,,
1.2213333333333334,6.5e-05,,
1.222,9e-05,,
1.2226666666666666,0.00011,,
1.2233333333333334,0.00013,,
1.224,0.000158,,
1.2246666666666666,0.000197,,
1.2253333333333334,0.000172,,
1.226,0.000172,,
1.2266666666666666,0.000185,,
1.2273333333333334,0.000181,,
1.228,0.00023,,
1.2286666666666666,0.000219,,
1.2293333333333334,2.3e-05,,
1.23,-0.000176,,
1.2306666666666666,-0.000302,,
1.2313333333333334,-0.000356,,
1.232,-0.000355,,
1.2326666666666666,-0.000367,,
1.2333333333333334,-0.000455,,
1.234,-0.000512,,
1.2346666666666666,-0.000518,,
1.2353333333333334,-0.000508,,
1.236,-0.000419,,
1.2366666666666666,-0.000272,,
1.2373333333333334,-9.3e-05,,
1.238,-3.5e-05,,
1.2386666666666666,-2.5e-05,,
1.2393333333333334,-2.9e-05,,
1.24,-8.5e-05,,
1.2406666666666666,-0.00016,,
1.2413333333333334,-0.000151,,
1.242,-1.4e-05,,
1.2426666666666666,0.000172,,
1.2433333333333334,0.000348,,
1.244,0.000445,,
1.2446666666666666,0.000453,,
1.2453333333333332,0.000522,,
1.246,0.000542,,
1.2466666666666666,0.000462,,
1.2473333333333332,0.000322,,
1.248,0.000253,,
1.2486666666666666,0.000206,,
1.2493333333333332,0.000112,,
1.25,-9e-06,,
1.2506666666666666,-0.000149,,
1.2513333333333332,-0.000251,,
1.252,-0.000332,,
1.2526666666666666,-0.000375,,
1.2533333333333332,-0.000378,,
1.254,-0.000373,,
1.2546666666666666,-0.000386,,
1.2553333333333332,-0.000345,,
1.256,-0.000256,,
1.2566666666666666,-0.00016,,
1.2573333333333332,5.1e-05,,
1.258,0.000139,,
1.2586666666666666,9e-05,,
1.2593333333333332,8.4e-05,,
1.26,0.000152,,
1.2606666666666666,0.000208,,
1.2613333333333332,0.000187,,
1.262,0.000196,,
1.2626666666666666,0.000169,,
1.2633333333333332,0.000128,,
1.264,0.000112,,
1.2646666666666666,5.9e-05,,
1.2653333333333332,-2e-06,,
1.266,-1.5e-05,,
1.2666666666666666,7.2e-05,,
1.2673333333333332,0.000141,,
1.268,0.000102,,
1.2686666666666666,7e-05,,
1.2693333333333332,9e-06,,
1.27,-5.5e-05,,
1.2706666666666666,-0.000121,,
1.2713333333333332,-0.000225,,
1.272,-0.000342,,
1.2726666666666666,-0.000397,,
1.2733333333333332,-0.000391,,
1.274,-0.00043,,
1.2746666666666666,-0.000499,,
1.2753333333333332,-0.000475,,
1.276,-0.000328,,
1.2766666666666666,-0.00016,,
1.2773333333333332,2.1e-05,,
1.278,5.5e-05,,
1.2786666666666666,-2.2e-05,,
1.2793333333333332,-0.000105,,
1.28,-7.4e-05,,
1.2806666666666666,0.000114,,
1.2813333333333332,0.000239,,
1.282,0.000264,,
1.2826666666666666,0.000311,,
1.2833333333333332,0.000365,,
1.284,0.000379,,
1.2846666666666666,0.000307,,
1.2853333333333332,0.000292,,
1.286,0.000302,,
1.2866666666666666,0.000221,,
1.2873333333333332,0.000112,,
1.288,8.8e-05,,
1.2886666666666666,6.5e-05,,
1.2893333333333332,-1.7e-05,,
1.29,-6.2e-05,,
1.2906666666666666,-6e-06,,
1.2913333333333332,-3.7e-05,,
1.292,-0.000166,,
1.2926666666666666,-0.000282,,
1.2933333333333332,-0.000273,,
1.294,-0.000299,,
1.2946666666666666,-0.000521,,
1.2953333333333332,-0.000599,,
1.296,-0.000397,,
1.2966666666666666,-0.000137,,
1.2973333333333332,0.000122,,
1.298,0.000169,,
1.2986666666666666,0.000241,,
1.2993333333333332,0.000311,,
1.3,0.000272,,
1.3006666666666666,0.00036,,
1.3013333333333332,0.000368,,
1.302,0.000254,,
1.3026666666666666,0.000233,,
1.3033333333333332,0.000362,,
1.304,0.000572,,
1.3046666666666666,0.000695,,
1.3053333333333332,0.000617,,
1.306,0.000532,,
1.3066666666666666,0.00031,,
1.3073333333333332,0.000161,,
1.308,0.000125,,
1.3086666666666666,6.7e-05,,
1.3093333333333332,-4.6e-05,,
1.31,-6.4e-05,,
1.3106666666666666,-0.000157,,
1.3113333333333332,-0.000256,,
1.312,-0.00032,,
1.3126666666666666,-0.000431,,
1.3133333333333332,-0.000566,,
1.314,-0.000658,,
1.3146666666666669,-0.000666,,
1.3153333333333332,-0.000505,,
1.316,-0.000322,,
1.3166666666666669,-0.000185,,
1.3173333333333332,-0.000203,,
1.318,-0.000226,,
1.3186666666666669,-3.4e-05,,
1.3193333333333332,6.2e-05,,
1.32,-0.000174,,
1.3206666666666669,-0.000269,,
1.3213333333333332,8e-06,,
1.322,0.000296,,
1.3226666666666669,0.000542,,
1.3233333333333333,0.000811,,
1.324,0.001017,,
1.3246666666666669,0.001,,
1.3253333333333333,0.000876,,
1.3259999999999998,0.000664,,
1.3266666666666669,0.00041,,
1.3273333333333333,0.0002,,
1.3279999999999998,-5.3e-05,,
1.3286666666666669,-0.000213,,
1.3293333333333333,-0.000374,,
1.3299999999999998,-0.000386,,
1.3306666666666669,-0.000296,,
1.3313333333333333,-0.000179,,
1.332,-0.000202,,
1.3326666666666669,-0.000307,,
1.3333333333333333,-0.000389,,
1.334,-0.000489,,
1.334666666666667,-0.000606,,
1.3353333333333333,-0.000607,,
1.336,-0.000355,,
1.336666666666667,-4.4e-05,,
1.3373333333333333,0.000311,,
1.338,0.000443,,
1.338666666666667,0.000413,,
1.3393333333333333,0.000218,,
1.34,-0.000212,,
1.340666666666667,-0.000453,,
1.3413333333333333,-0.000256,,
1.342,9e-05,,
1.342666666666667,0.000116,,
1.3433333333333333,-0.000122,,
1.344,-0.000208,,
1.344666666666667,-9e-05,,
1.3453333333333333,8.3e-05,,
1.346,0.000501,,
1.346666666666667,0.001028,,
1.3473333333333333,0.00108,,
1.348,0.000734,,
1.348666666666667,0.000391,,
1.3493333333333333,5.1e-05,,
1.35,-0.000409,,
1.350666666666667,-0.000667,,
1.3513333333333333,-0.000634,,
1.352,-0.000728,,
1.352666666666667,-0.000712,,
1.3533333333333333,-0.000536,,
1.354,-0.000577,,
1.354666666666667,-0.000619,,
1.3553333333333333,-0.000541,,
1.356,-0.000201,,
1.356666666666667,-0.000219,,
1.3573333333333333,-0.000322,,
1.358,-0.000292,,
1.3586666666666667,-0.000206,,
1.3593333333333333,-0.000124,,
1.36,-1.6e-05,,
1.3606666666666667,0.000308,,
1.3613333333333333,7.3e-05,,
1.362,-0.000468,,
1.3626666666666667,-0.000687,,
1.3633333333333333,-0.000284,,
1.364,0.000126,,
1.3646666666666667,0.000324,,
1.3653333333333333,0.000233,,
1.366,5.5e-05,,
1.3666666666666667,-0.0,,
1.3673333333333333,-0.000383,,
1.368,-0.000682,,
1.3686666666666667,-0.000395,,
1.3693333333333333,-0.000317,,
1.37,-0.000368,,
1.3706666666666667,-0.000337,,
1.3713333333333333,-0.000199,,
1.372,-0.000112,,
1.3726666666666667,-0.000246,,
1.3733333333333333,-0.000341,,
1.374,-0.000418,,
1.3746666666666667,-0.000416,,
1.3753333333333333,-0.000155,,
1.376,-0.000126,,
1.3766666666666667,-0.00047,,
1.3773333333333333,-0.000481,,
1.378,-0.000306,,
1.3786666666666667,-0.000315,,
1.3793333333333333,-0.000341,,
1.38,-0.000199,,
1.3806666666666667,0.000249,,
1.3813333333333333,0.000429,,
1.382,0.000439,,
1.3826666666666667,0.000588,,
1.3833333333333333,0.000264,,
1.384,-0.000114,,
1.3846666666666667,-0.000541,,
1.3853333333333333,-0.000281,,
1.386,0.000203,,
1.3866666666666667,0.000139,,
1.3873333333333333,2e-05,,
1.388,0.000159,,
1.3886666666666667,0.000241,,
1.3893333333333333,-4.1e-05,,
1.39,-0.000278,,
1.3906666666666667,-0.000279,,
1.3913333333333333,-0.000414,,
1.392,-0.000738,,
1.3926666666666667,-0.000872,,
1.393333333333333,-0.000894,,
1.394,-0.000913,,
1.3946666666666667,-0.000912,,
1.395333333333333,-0.000913,,
1.396,-0.000914,,
1.3966666666666667,-0.000913,,
1.397333333333333,-0.000912,,
1.398,-0.000714,,
1.3986666666666667,0.000198,,
1.399333333333333,0.001021,,
1.4,0.001509,,
1.4006666666666667,0.001368,,
1.401333333333333,0.000992,,
1.402,0.00045,,
1.4026666666666667,-1.5e-05,,
1.403333333333333,-0.00033,,
1.404,-0.000318,,
1.4046666666666667,-4.4e-05,,
1.405333333333333,0.000369,,
1.406,0.000492,,
1.4066666666666665,0.000503,,
1.407333333333333,0.000576,,
1.408,0.000476,,
1.4086666666666663,0.000214,,
1.409333333333333,0.000414,,
1.41,0.000801,,
1.4106666666666663,0.000892,,
1.411333333333333,0.000605,,
1.412,0.000138,,
1.4126666666666663,-0.000207,,
1.413333333333333,-4.9e-05,,
1.414,0.000442,,
1.4146666666666663,0.000569,,
1.415333333333333,0.00049,,
1.416,0.00063,,
1.4166666666666663,0.00107,,
1.4173333333333331,0.001444,,
1.418,0.001464,,
1.4186666666666663,0.001034,,
1.4193333333333331,0.000479,,
1.42,0.000208,,
1.4206666666666663,0.000303,,
1.4213333333333331,0.000465,,
1.422,0.000143,,
1.4226666666666663,0.000331,,
1.4233333333333331,0.000546,,
1.424,0.00031,,
1.4246666666666663,4e-06,,
1.4253333333333331,-2.2e-05,,
1.426,0.000384,,
1.4266666666666663,0.000642,,
1.4273333333333331,0.000496,,
1.428,0.000329,,
1.4286666666666663,0.000496,,
1.4293333333333331,0.000537,,
1.43,0.000474,,
1.4306666666666663,0.000253,,
1.4313333333333331,-0.000373,,
1.432,-0.000543,,
1.4326666666666663,-0.000238,,
1.4333333333333331,-0.000195,,
1.434,-0.000305,,
1.4346666666666663,-0.000526,,
1.4353333333333331,-0.000165,,
1.436,0.000613,,
1.4366666666666663,0.001031,,
1.4373333333333334,0.001044,,
1.438,0.000771,,
1.4386666666666663,0.000631,,
1.4393333333333334,0.000386,,
1.44,0.000159,,
1.4406666666666663,-2.8e-05,,
1.4413333333333334,-2.5e-05,,
1.442,0.000377,,
1.4426666666666663,0.00031,,
1.4433333333333334,7.4e-05,,
1.444,-3.7e-05,,
1.4446666666666663,-7.6e-05,,
1.4453333333333334,0.000341,,
1.446,0.000507,,
1.4466666666666663,0.000266,,
1.4473333333333334,-0.000222,,
1.448,-0.000366,,
1.4486666666666663,-0.000669,,
1.4493333333333334,-0.000664,,
1.45,-0.000563,,
1.4506666666666663,-0.00046,,
1.4513333333333334,-0.000373,,
1.452,-0.000607,,
1.4526666666666666,-0.000836,,
1.4533333333333334,-0.000892,,
1.454,-0.000906,,
1.4546666666666666,-0.000911,,
1.4553333333333334,-0.000914,,
1.456,-0.000915,,
1.4566666666666666,-0.000904,,
1.4573333333333334,-0.000915,,
1.458,-0.000912,,
1.4586666666666666,-0.000911,,
1.4593333333333334,-0.000362,,
1.46,0.000604,,
1.4606666666666666,0.001087,,
1.4613333333333334,0.000945,,
1.462,0.000543,,
1.4626666666666666,-6.9e-05,,
1.4633333333333334,-0.000468,,
1.464,-4.6e-05,,
1.4646666666666666,0.000443,,
1.4653333333333334,0.000693,,
1.466,0.000549,,
1.4666666666666666,0.000525,,
1.4673333333333334,0.000537,,
1.468,0.000383,,
1.4686666666666666,4e-05,,
1.4693333333333334,-0.000223,,
1.47,-0.00047,,
1.4706666666666666,-0.00071,,
1.4713333333333334,-0.000855,,
1.472,-0.000896,,
1.4726666666666666,-0.000908,,
1.4733333333333334,-0.000906,,
1.474,-0.00091,,
1.4746666666666666,-0.000908,,
1.4753333333333334,-0.000915,,
1.476,-0.00091,,
1.4766666666666666,-0.000911,,
1.4773333333333334,-0.000915,,
1.478,-0.000911,,
1.4786666666666666,-0.000913,,
1.4793333333333334,-0.00091,,
1.48,-0.000913,,
1.4806666666666666,-0.000911,,
1.4813333333333334,-0.000909,,
1.482,-0.000131,,
1.4826666666666666,0.000564,,
1.4833333333333334,0.000792,,
1.484,0.00142,,
1.4846666666666666,0.001585,,
1.4853333333333334,0.001585,,
1.486,0.001585,,
1.4866666666666666,0.001006,,
1.4873333333333332,0.000798,,
1.488,0.00028,,
1.4886666666666666,2.1e-05,,
1.4893333333333332,0.00042,,
1.49,1.3e-05,,
1.4906666666666666,-0.000571,,
1.4913333333333332,-0.000822,,
1.492,-0.000888,,
1.4926666666666666,-0.000899,,
1.4933333333333332,-0.000911,,
1.494,-0.000767,,
1.4946666666666666,-0.000879,,
1.4953333333333332,-0.000906,,
1.496,-0.000908,,
1.4966666666666666,-0.000913,,
1.4973333333333332,-0.000914,,
1.498,-0.000911,,
1.4986666666666666,-0.000915,,
1.4993333333333332,-0.000915,,
1.5,-0.000431,,
1.5006666666666666,-1.9e-05,,
1.5013333333333332,-0.000317,,
1.502,-0.000577,,
1.5026666666666666,-0.000546,,
1.5033333333333332,0.000102,,
1.504,0.001051,,
1.5046666666666666,0.001585,,
1.5053333333333332,0.001585,,
1.506,0.001585,,
1.5066666666666666,0.001585,,
1.5073333333333332,0.001585,,
1.508,0.001585,,
1.5086666666666666,0.001585,,
1.5093333333333332,0.001585,,
1.51,0.000943,,
1.5106666666666666,-0.000255,,
1.5113333333333332,-0.000736,,
1.512,-0.000865,,
1.5126666666666666,-0.0009,,
1.5133333333333332,-0.00088,,
1.514,-0.00084,,
1.5146666666666666,-0.000895,,
1.5153333333333332,-0.000907,,
1.516,-0.000914,,
1.5166666666666666,-0.00091,,
1.5173333333333332,-0.000913,,
1.518,-0.000913,,
1.5186666666666666,-0.000908,,
1.5193333333333332,-0.000913,,
1.52,-0.000914,,
1.5206666666666666,-0.000913,,
1.5213333333333332,-0.000913,,
1.522,-0.000915,,
1.5226666666666666,-0.000915,,
1.5233333333333332,-0.00091,,
1.524,-0.000914,,
1.5246666666666666,-0.000911,,
1.5253333333333332,-0.000913,,
1.526,-0.000913,,
1.5266666666666666,-0.000408,,
1.5273333333333332,0.000479,,
1.528,0.000896,,
1.5286666666666666,0.000808,,
1.5293333333333332,0.000741,,
1.53,0.001163,,
1.5306666666666666,0.00107,,
1.5313333333333332,0.000531,,
1.532,0.000438,,
1.5326666666666666,0.000496,,
1.5333333333333332,0.00042,,
1.534,0.000187,,
1.5346666666666666,9e-06,,
1.5353333333333332,-7.7e-05,,
1.536,0.000152,,
1.5366666666666666,-8.3e-05,,
1.5373333333333332,5.4e-05,,
1.538,0.000866,,
1.5386666666666666,0.001585,,
1.5393333333333332,0.001585,,
1.54,0.000883,,
1.5406666666666666,0.000418,,
1.5413333333333332,0.000406,,
1.542,4.5e-05,,
1.5426666666666666,-0.000575,,
1.5433333333333332,-0.000788,,
1.544,-0.000499,,
1.5446666666666666,-0.00071,,
1.5453333333333332,-0.000856,,
1.546,-0.000903,,
1.5466666666666666,-0.00091,,
1.5473333333333332,-0.000907,,
1.548,-0.000913,,
1.5486666666666666,-0.000915,,
1.5493333333333332,-0.000911,,
1.55,-0.000915,,
1.5506666666666666,-0.000911,,
1.5513333333333332,-0.000911,,
1.552,-0.000913,,
1.5526666666666666,-0.000914,,
1.5533333333333332,-0.000914,,
1.554,-0.000911,,
1.5546666666666666,-0.00091,,
1.5553333333333332,-0.000915,,
1.556,-0.000915,,
1.5566666666666666,-0.000915,,
1.5573333333333332,-0.000678,,
1.558,-0.000587,,
1.5586666666666666,-0.000129,,
1.5593333333333332,0.00062,,
1.56,0.000988,,
1.5606666666666666,0.001453,,
1.5613333333333332,0.001585,,
1.562,0.001585,,
1.5626666666666666,0.001585,,
1.5633333333333332,0.001585,,
1.564,0.001585,,
1.5646666666666669,0.001585,,
1.5653333333333332,0.001585,,
1.566,0.001585,,
1.5666666666666669,0.001585,,
1.5673333333333332,0.001585,,
1.5679999999999998,0.001585,,
1.5686666666666669,0.001585,,
1.5693333333333332,0.001523,,
1.5699999999999998,0.001539,,
1.5706666666666669,0.001585,,
1.5713333333333332,0.001009,,
1.5719999999999998,-6e-06,,
1.5726666666666669,-9.5e-05,,
1.5733333333333333,0.000395,,
1.5739999999999998,0.000686,,
1.5746666666666669,0.000379,,
1.5753333333333333,-3.2e-05,,
1.5759999999999998,-0.00037,,
1.5766666666666669,-0.00066,,
1.5773333333333333,-0.000844,,
1.5779999999999998,-0.000895,,
1.5786666666666669,-0.000906,,
1.5793333333333333,-0.000905,,
1.5799999999999998,-0.00091,,
1.5806666666666669,-0.000911,,
1.5813333333333333,-0.000676,,
1.582,-0.000853,,
1.5826666666666669,-0.000899,,
1.5833333333333333,-0.000911,,
1.584,-0.00091,,
1.584666666666667,-0.000649,,
1.5853333333333333,-0.000381,,
1.586,-0.000677,,
1.586666666666667,-0.000858,,
1.5873333333333333,-0.0009,,
1.588,-0.000905,,
1.588666666666667,-0.000906,,
1.5893333333333333,-0.000913,,
1.59,-0.000908,,
1.590666666666667,-0.000913,,
1.5913333333333333,-0.000911,,
1.592,-0.000668,,
1.592666666666667,-0.000728,,
1.5933333333333333,-0.000865,,
1.594,-0.000861,,
1.594666666666667,-0.00041,,
1.5953333333333333,0.000554,,
1.596,0.001167,,
1.596666666666667,0.001503,,
1.5973333333333333,0.001585,,
1.598,0.001585,,
1.598666666666667,0.001585,,
1.5993333333333333,0.001585,,
1.6,0.001585,,
1.600666666666667,0.001565,,
1.6013333333333333,0.001585,,
1.602,0.001585,,
1.602666666666667,0.001585,,
1.6033333333333333,0.001585,,
1.604,0.001585,,
1.604666666666667,0.001585,,
1.6053333333333333,0.001585,,
1.606,0.001585,,
1.606666666666667,0.001585,,
1.6073333333333333,0.001585,,
1.608,0.001585,,
1.6086666666666667,0.001585,,
1.6093333333333333,0.000771,,
1.61,0.000103,,
1.6106666666666667,0.000231,,
1.6113333333333333,0.000238,,
1.612,-0.000146,,
1.6126666666666667,-0.000514,,
1.6133333333333333,-0.000797,,
1.614,-0.000878,,
1.6146666666666667,-0.000903,,
1.6153333333333333,-0.000909,,
1.616,-0.000913,,
1.6166666666666667,-0.000911,,
1.6173333333333333,-0.000913,,
1.618,-0.000909,,
1.6186666666666667,-0.00091,,
1.6193333333333333,-0.000911,,
1.62,-0.000915,,
1.6206666666666667,-0.000913,,
1.6213333333333333,-0.000912,,
1.622,-0.000909,,
1.6226666666666667,-0.000737,,
1.6233333333333333,-0.0008,,
1.624,-0.000885,,
1.6246666666666667,-0.0009,,
1.6253333333333333,-0.000537,,
1.626,0.000239,,
1.6266666666666667,0.000445,,
1.6273333333333333,0.000581,,
1.628,0.001014,,
1.6286666666666667,0.001585,,
1.6293333333333333,0.001585,,
1.63,0.001585,,
1.6306666666666667,0.001585,,
1.6313333333333333,0.001585,,
1.632,0.001585,,
1.6326666666666667,0.001585,,
1.6333333333333333,0.001585,,
1.634,0.001585,,
1.6346666666666667,0.001585,,
1.6353333333333333,0.001585,,
1.636,0.001585,,
1.6366666666666667,0.001585,,
1.6373333333333333,0.001585,,
1.638,0.00068,,
1.6386666666666667,2e-06,,
1.6393333333333333,0.000159,,
1.64,0.000919,,
1.6406666666666667,0.001225,,
1.6413333333333333,0.000713,,
1.642,3.6e-05,,
1.6426666666666667,0.000339,,
1.643333333333333,0.000183,,
1.644,-0.000494,,
1.6446666666666667,-0.000684,,
1.645333333333333,-0.000844,,
1.646,-0.000892,,
1.6466666666666665,-0.000905,,
1.647333333333333,-0.000907,,
1.648,-0.000908,,
1.6486666666666665,-0.000911,,
1.649333333333333,-0.00091,,
1.65,-0.000908,,
1.6506666666666665,-0.000915,,
1.651333333333333,-0.000885,,
1.652,-0.000464,,
1.6526666666666665,0.000269,,
1.653333333333333,0.00083,,
1.654,0.000851,,
1.6546666666666665,0.001068,,
1.655333333333333,0.001564,,
1.656,0.001585,,
1.6566666666666665,0.001585,,
1.657333333333333,0.001585,,
1.658,0.001178,,
1.6586666666666663,0.000288,,
1.659333333333333,-0.000413,,
1.66,-0.000776,,
1.6606666666666663,-0.000876,,
1.661333333333333,-0.0009,,
1.662,-0.000911,,
1.6626666666666663,-0.000905,,
1.663333333333333,-0.00046,,
1.664,-0.00065,,
1.6646666666666663,-0.000849,,
1.665333333333333,-0.000899,,
1.666,-0.000908,,
1.6666666666666663,-0.000907,,
1.6673333333333331,-0.000911,,
1.668,-0.000915,,
1.6686666666666663,-0.000139,,
1.6693333333333331,0.000265,,
1.67,0.000611,,
1.6706666666666663,0.001481,,
1.6713333333333331,0.001585,,
1.672,0.001585,,
1.6726666666666663,0.001319,,
1.6733333333333331,0.001585,,
1.674,0.001585,,
1.6746666666666663,0.001252,,
1.6753333333333331,0.000926,,
1.676,0.001453,,
1.6766666666666663,0.001585,,
1.6773333333333331,0.001585,,
1.678,0.00082,,
1.6786666666666663,5e-05,,
1.6793333333333331,-0.000602,,
1.68,-0.000825,,
1.6806666666666663,-0.000892,,
1.6813333333333331,-0.000905,,
1.682,-0.000913,,
1.6826666666666663,-0.000913,,
1.6833333333333331,-0.000915,,
1.684,-0.0009,,
1.6846666666666663,-0.000303,,
1.6853333333333331,0.000233,,
1.686,0.001111,,
1.6866666666666663,0.001585,,
1.6873333333333334,0.001585,,
1.688,0.001585,,
1.6886666666666663,0.001585,,
1.6893333333333334,0.001585,,
1.69,0.001585,,
1.6906666666666663,0.001585,,
1.6913333333333334,0.001585,,
1.692,0.001585,,
1.6926666666666663,0.001585,,
1.6933333333333334,0.001493,,
1.694,0.001381,,
1.6946666666666663,0.001252,,
1.6953333333333334,0.000849,,
1.696,0.000604,,
1.6966666666666663,0.000129,,
1.6973333333333334,-0.000549,,
1.698,-0.000815,,
1.6986666666666663,-0.00088,,
1.6993333333333334,-0.000903,,
1.7,-0.000757,,
1.7006666666666663,-0.000524,,
1.7013333333333334,-0.000607,,
1.702,-0.000831,,
1.7026666666666666,-0.000894,,
1.7033333333333334,-0.000906,,
1.704,-0.000909,,
1.7046666666666666,-0.000908,,
1.7053333333333334,-0.000908,,
1.706,-0.000914,,
1.7066666666666666,-0.000734,,
1.7073333333333334,-0.000349,,
1.708,0.000384,,
1.7086666666666666,0.001344,,
1.7093333333333334,0.001585,,
1.71,0.001585,,
1.7106666666666666,0.001257,,
1.7113333333333334,0.001272,,
1.712,0.001562,,
1.7126666666666666,0.00131,,
1.7133333333333334,0.000902,,
1.714,0.000882,,
1.7146666666666666,0.000609,,
1.7153333333333334,0.000361,,
1.716,0.000213,,
1.7166666666666666,0.000162,,
1.7173333333333334,-0.000116,,
1.718,-0.000311,,
1.7186666666666666,-0.00062,,
1.7193333333333334,-0.000827,,
1.72,-0.000889,,
1.7206666666666666,-0.000908,,
1.7213333333333334,-0.000912,,
1.722,-0.000911,,
1.7226666666666666,-0.000913,,
1.7233333333333334,-0.000913,,
1.724,-0.000909,,
1.7246666666666666,-0.00055,,
1.7253333333333334,0.000489,,
1.726,0.001386,,
1.7266666666666666,0.001585,,
1.7273333333333332,0.001585,,
1.728,0.001485,,
1.7286666666666666,0.001585,,
1.7293333333333332,0.001585,,
1.73,0.001209,,
1.7306666666666666,0.000814,,
1.7313333333333332,0.000685,,
1.732,4.7e-05,,
1.7326666666666666,-0.00039,,
1.7333333333333332,-0.000268,,
1.734,-0.00049,,
1.7346666666666666,-0.000698,,
1.7353333333333332,-0.000521,,
1.736,-0.000202,,
1.7366666666666666,-0.000198,,
1.7373333333333332,-0.000704,,
1.738,-0.000854,,
1.7386666666666666,-0.000895,,
1.7393333333333332,-0.000907,,
1.74,-0.00091,,
1.7406666666666666,-0.000146,,
1.7413333333333332,0.000819,,
1.742,0.001531,,
1.7426666666666666,0.001585,,
1.7433333333333332,0.001585,,
1.744,0.001585,,
1.7446666666666666,0.000721,,
1.7453333333333332,-0.000148,,
1.746,-0.000539,,
1.7466666666666666,-0.000709,,
1.7473333333333332,-0.000558,,
1.748,-0.000549,,
1.7486666666666666,-0.000812,,
1.7493333333333332,-0.000888,,
1.75,-0.000591,,
1.7506666666666666,-0.000254,,
1.7513333333333332,0.000416,,
1.752,0.00089,,
1.7526666666666666,0.000709,,
1.7533333333333332,0.000292,,
1.754,-0.00019,,
1.7546666666666666,-0.000407,,
1.7553333333333332,-0.00061,,
1.756,-0.000632,,
1.7566666666666666,-0.000623,,
1.7573333333333332,-0.000834,,
1.758,-0.000629,,
1.7586666666666666,-0.000218,,
1.7593333333333332,0.00073,,
1.76,0.001585,,
1.7606666666666666,0.001585,,
1.7613333333333332,0.001318,,
1.762,0.000576,,
1.7626666666666666,0.000208,,
1.7633333333333332,0.000237,,
1.764,0.000438,,
1.7646666666666666,0.000426,,
1.7653333333333332,0.000681,,
1.766,0.000877,,
1.7666666666666666,0.001069,,
1.7673333333333332,0.001585,,
1.768,0.001585,,
1.7686666666666666,0.001585,,
1.7693333333333332,0.001585,,
1.77,0.001585,,
1.7706666666666666,0.001251,,
1.7713333333333332,-8.8e-05,,
1.772,-0.000684,,
1.7726666666666666,-0.000852,,
1.7733333333333332,-0.000895,,
1.774,-0.000905,,
1.7746666666666666,-0.000909,,
1.7753333333333332,-0.000915,,
1.776,-0.000912,,
1.7766666666666666,-0.000913,,
1.7773333333333332,-0.000911,,
1.778,-0.000913,,
1.7786666666666666,-0.000912,,
1.7793333333333332,-0.000912,,
1.78,-0.000915,,
1.7806666666666666,-0.000914,,
1.7813333333333332,-0.00091,,
1.782,-0.000482,,
1.7826666666666666,-0.000426,,
1.7833333333333332,1.7e-05,,
1.784,0.000941,,
1.7846666666666666,0.001585,,
1.7853333333333332,0.001585,,
1.786,0.001585,,
1.7866666666666666,0.001585,,
1.7873333333333332,0.001585,,
1.788,0.001585,,
1.7886666666666666,0.001585,,
1.7893333333333332,0.001212,,
1.79,0.000941,,
1.7906666666666666,0.001523,,
1.7913333333333332,0.001585,,
1.792,0.001585,,
1.7926666666666666,0.000886,,
1.7933333333333332,-8.6e-05,,
1.794,-0.000547,,
1.7946666666666666,-0.000341,,
1.7953333333333332,8.6e-05,,
1.796,2e-06,,
1.7966666666666666,0.00031,,
1.7973333333333332,0.000866,,
1.798,0.00125,,
1.7986666666666666,0.001194,,
1.7993333333333332,0.000655,,
1.8,0.000477,,
1.8006666666666666,0.000464,,
1.8013333333333332,0.001214,,
1.802,0.001585,,
1.8026666666666664,0.001585,,
1.8033333333333328,0.001099,,
1.804,0.000247,,
1.8046666666666664,-2.3e-05,,
1.8053333333333328,-7.7e-05,,
1.806,-0.000116,,
1.8066666666666664,0.000101,,
1.8073333333333328,-8e-06,,
1.808,-0.000563,,
1.8086666666666664,-0.000775,,
1.8093333333333328,-0.000834,,
1.81,-0.000889,,
1.8106666666666664,-0.000904,,
1.8113333333333328,-0.000912,,
1.812,-0.000528,,
1.8126666666666664,-0.000624,,
1.8133333333333328,-0.000837,,
1.814,-0.000894,,
1.8146666666666669,-0.00091,,
1.8153333333333328,-0.0008,,
1.816,-0.000602,,
1.8166666666666669,-0.000627,,
1.8173333333333328,-0.000813,,
1.818,-0.000891,,
1.8186666666666669,-0.000905,,
1.8193333333333328,-0.000913,,
1.82,-0.00091,,
1.8206666666666669,-0.000914,,
1.8213333333333328,-0.000649,,
1.822,-0.000199,,
1.8226666666666669,-0.000198,,
1.8233333333333333,-0.000167,,
1.824,6.7e-05,,
1.8246666666666669,0.000401,,
1.8253333333333333,0.00058,,
1.826,0.001144,,
1.8266666666666669,0.001468,,
1.8273333333333333,0.001585,,
1.828,0.001584,,
1.8286666666666669,0.001275,,
1.8293333333333333,0.001167,,
1.83,0.001166,,
1.8306666666666669,0.000914,,
1.8313333333333333,0.000426,,
1.832,0.000138,,
1.8326666666666669,0.00013,,
1.8333333333333333,0.000269,,
1.834,0.000371,,
1.834666666666667,0.000869,,
1.8353333333333333,0.001434,,
1.836,0.001329,,
1.836666666666667,0.001478,,
1.8373333333333333,0.00158,,
1.838,0.001431,,
1.838666666666667,0.001164,,
1.8393333333333333,0.00102,,
1.84,0.000968,,
1.840666666666667,0.001135,,
1.8413333333333333,0.001294,,
1.842,0.001138,,
1.842666666666667,0.000943,,
1.8433333333333333,0.000769,,
1.844,0.000355,,
1.844666666666667,-5.2e-05,,
1.8453333333333333,-4.7e-05,,
1.846,8e-05,,
1.846666666666667,0.000164,,
1.8473333333333333,-0.000257,,
1.848,-0.000458,,
1.848666666666667,-0.000349,,
1.8493333333333333,-0.000438,,
1.85,-0.000562,,
1.850666666666667,-0.000395,,
1.8513333333333333,5e-05,,
1.852,0.000448,,
1.852666666666667,0.000797,,
1.8533333333333333,0.000662,,
1.854,0.000233,,
1.854666666666667,-5.5e-05,,
1.8553333333333333,2.8e-05,,
1.856,0.000269,,
1.856666666666667,0.000528,,
1.8573333333333333,0.000473,,
1.858,0.000172,,
1.8586666666666667,-2e-06,,
1.8593333333333333,-0.000167,,
1.86,-0.000151,,
1.8606666666666667,0.000112,,
1.8613333333333333,8.7e-05,,
1.862,-0.000267,,
1.8626666666666667,-0.000729,,
1.8633333333333333,-0.000864,,
1.864,-0.000899,,
1.8646666666666667,-0.000832,,
1.8653333333333333,-0.000843,,
1.866,-0.00077,,
1.8666666666666667,-0.000426,,
1.8673333333333333,-0.000321,,
1.868,-0.000659,,
1.8686666666666667,-0.00085,,
1.8693333333333333,-0.000898,,
1.87,-0.000902,,
1.8706666666666667,-0.000905,,
1.8713333333333333,-0.000783,,
1.872,-9.1e-05,,
1.8726666666666667,0.000213,,
1.8733333333333333,0.000476,,
1.874,0.001059,,
1.8746666666666667,0.001316,,
1.8753333333333333,0.001189,,
1.876,0.001036,,
1.8766666666666667,0.001128,,
1.8773333333333333,0.001114,,
1.878,0.001308,,
1.8786666666666667,0.001355,,
1.8793333333333333,0.001331,,
1.88,0.001572,,
1.8806666666666667,0.001415,,
1.8813333333333333,0.000886,,
1.882,0.000338,,
1.8826666666666667,0.000166,,
1.8833333333333333,9.8e-05,,
1.884,-0.000199,,
1.8846666666666667,-0.000357,,
1.8853333333333333,-0.000154,,
1.886,9.3e-05,,
1.8866666666666667,-3.4e-05,,
1.8873333333333333,-0.000216,,
1.888,-0.000266,,
1.8886666666666665,-3.3e-05,,
1.8893333333333333,0.000141,,
1.89,6.4e-05,,
1.8906666666666665,2.9e-05,,
1.8913333333333333,-0.000245,,
1.892,-0.000294,,
1.8926666666666665,-0.000105,,
1.893333333333333,0.000186,,
1.894,0.000333,,
1.8946666666666665,0.000139,,
1.895333333333333,2.8e-05,,
1.896,0.000213,,
1.8966666666666665,0.000296,,
1.897333333333333,3.7e-05,,
1.898,-0.000107,,
1.8986666666666665,-0.000117,,
1.899333333333333,5.6e-05,,
1.9,0.000256,,
1.9006666666666665,0.000264,,
1.901333333333333,0.000131,,
1.902,-9.3e-05,,
1.9026666666666665,-8.2e-05,,
1.903333333333333,-3.5e-05,,
1.904,-0.000121,,
1.9046666666666665,-4.7e-05,,
1.905333333333333,0.000178,,
1.906,0.000431,,
1.9066666666666665,0.00044,,
1.907333333333333,0.000396,,
1.908,0.000642,,
1.9086666666666663,0.000819,,
1.909333333333333,0.001136,,
1.91,0.001228,,
1.9106666666666663,0.001067,,
1.911333333333333,0.000895,,
1.912,0.000612,,
1.9126666666666663,0.000273,,
1.913333333333333,-1.1e-05,,
1.914,-6.4e-05,,
1.9146666666666663,4.7e-05,,
1.915333333333333,2e-05,,
1.916,4e-05,,
1.9166666666666663,0.000397,,
1.9173333333333331,0.000409,,
1.918,0.000233,,
1.9186666666666663,0.000135,,
1.9193333333333331,0.000211,,
1.92,0.000135,,
1.9206666666666663,-6.9e-05,,
1.9213333333333331,-0.00035,,
1.922,-0.000541,,
1.9226666666666663,-0.000627,,
1.9233333333333331,-0.000659,,
1.924,-0.000571,,
1.9246666666666663,-0.000483,,
1.9253333333333331,-0.000418,,
1.926,-0.000504,,
1.9266666666666663,-0.000511,,
1.9273333333333331,-0.000431,,
1.928,-0.000452,,
1.9286666666666663,-0.000163,,
1.9293333333333331,0.000197,,
1.93,0.000481,,
1.9306666666666663,0.000543,,
1.9313333333333331,0.000494,,
1.932,0.000417,,
1.9326666666666663,0.000324,,
1.9333333333333331,0.000283,,
1.934,0.000244,,
1.9346666666666663,0.000311,,
1.9353333333333331,0.000493,,
1.936,0.000608,,
1.9366666666666663,0.000642,,
1.9373333333333331,0.000579,,
1.938,0.000658,,
1.9386666666666663,0.000641,,
1.9393333333333331,0.000518,,
1.94,0.000243,,
1.9406666666666663,0.000203,,
1.9413333333333331,0.000349,,
1.942,0.000358,,
1.9426666666666663,0.000366,,
1.9433333333333331,0.000415,,
1.944,0.000383,,
1.9446666666666663,0.00053,,
1.9453333333333331,0.000664,,
1.946,0.00066,,
1.9466666666666663,0.000848,,
1.9473333333333331,0.000843,,
1.948,0.000611,,
1.9486666666666663,0.00031,,
1.9493333333333331,-1e-05,,
1.95,-0.000312,,
1.9506666666666663,-0.000535,,
1.9513333333333331,-0.000685,,
1.952,-0.000844,,
1.9526666666666663,-0.000894,,
1.9533333333333331,-0.000905,,
1.954,-0.000913,,
1.9546666666666663,-0.000913,,
1.9553333333333331,-0.000683,,
1.956,-0.000414,,
1.9566666666666663,-0.000345,,
1.9573333333333331,-0.000519,,
1.958,-0.000563,,
1.9586666666666663,-0.000412,,
1.9593333333333331,-0.000256,,
1.96,-9.3e-05,,
1.9606666666666663,0.000122,,
1.9613333333333332,0.000197,,
1.962,0.000179,,
1.9626666666666663,0.000304,,
1.9633333333333332,0.000467,,
1.964,0.000506,,
1.9646666666666663,0.000514,,
1.9653333333333332,0.000412,,
1.966,0.000298,,
1.9666666666666663,0.000149,,
1.9673333333333332,-5.1e-05,,
1.968,-0.000243,,
1.9686666666666663,-0.000337,,
1.9693333333333327,-0.000402,,
1.97,-0.000523,,
1.9706666666666663,-0.000421,,
1.9713333333333327,-0.000206,,
1.972,-0.000164,,
1.9726666666666663,-0.000286,,
1.9733333333333327,-0.000359,,
1.974,-0.000416,,
1.9746666666666663,-0.000427,,
1.9753333333333327,-0.000468,,
1.976,-0.00036,,
1.9766666666666663,-0.000326,,
1.9773333333333327,-0.000411,,
1.978,-0.000488,,
1.9786666666666664,-0.00038,,
1.9793333333333327,-0.000411,,
1.98,-0.000557,,
1.9806666666666664,-0.000377,,
1.9813333333333327,-2.7e-05,,
1.982,9.5e-05,,
1.9826666666666664,8.7e-05,,
1.9833333333333327,0.00015,,
1.984,0.000219,,
1.9846666666666664,0.000319,,
1.9853333333333327,0.000541,,
1.986,0.000576,,
1.9866666666666664,0.000597,,
1.9873333333333327,0.000753,,
1.988,0.000892,,
1.9886666666666664,0.000744,,
1.9893333333333327,0.000616,,
1.99,0.000559,,
1.9906666666666664,0.000518,,
1.9913333333333327,0.000573,,
1.992,0.000451,,
1.9926666666666664,0.000277,,
1.9933333333333327,5.5e-05,,
1.994,-0.000126,,
1.9946666666666664,-0.000151,,
1.9953333333333327,-4.9e-05,,
1.996,8.9e-05,,
1.9966666666666664,0.000167,,
1.9973333333333327,0.000166,,
1.998,-5.8e-05,,
1.9986666666666664,-0.000267,,
1.9993333333333327,-0.000388,,
2.0,-0.00043,,
2.0006666666666666,-0.000335,,
2.001333333333333,-0.000115,,
2.002,-4.7e-05,,
2.002666666666667,-6.7e-05,,
2.0033333333333334,-0.000115,,
2.004,-7.3e-05,,
2.0046666666666666,0.000104,,
2.005333333333333,0.000271,,
2.006,0.000295,,
2.006666666666667,0.000344,,
2.0073333333333334,0.000354,,
2.008,0.000423,,
2.0086666666666666,0.000634,,
2.009333333333333,0.000544,,
2.01,0.000269,,
2.0106666666666664,-7.9e-05,,
2.0113333333333334,-0.000262,,
2.012,-0.000382,,
2.0126666666666666,-0.000433,,
2.013333333333333,-0.000479,,
2.014,-0.000475,,
2.0146666666666664,-0.000422,,
2.0153333333333334,-0.000239,,
2.016,-0.000104,,
2.0166666666666666,-0.000195,,
2.017333333333333,-0.000262,,
2.018,-0.000181,,
2.0186666666666664,-2.4e-05,,
2.019333333333333,1.7e-05,,
2.02,7.5e-05,,
2.0206666666666666,0.000175,,
2.021333333333333,0.000314,,
2.022,0.000438,,
2.0226666666666664,0.000414,,
2.023333333333333,0.000355,,
2.024,0.000459,,
2.0246666666666666,0.00054,,
2.025333333333333,0.000544,,
2.026,0.00039,,
2.0266666666666664,0.000478,,
2.027333333333333,0.000458,,
2.028,0.000306,,
2.0286666666666666,0.000235,,
2.029333333333333,0.000125,,
2.03,4.9e-05,,
2.0306666666666664,-0.000124,,
2.031333333333333,-0.000312,,
2.032,-0.000436,,
2.0326666666666666,-0.000541,,
2.033333333333333,-0.000634,,
2.034,-0.000586,,
2.0346666666666664,-0.000339,,
2.035333333333333,-7.4e-05,,
2.036,0.000225,,
2.036666666666666,0.000338,,
2.037333333333333,0.000266,,
2.038,0.000227,,
2.0386666666666664,0.000211,,
2.039333333333333,0.000221,,
2.04,0.000163,,
2.040666666666666,8.3e-05,,
2.041333333333333,0.000196,,
2.042,0.000282,,
2.0426666666666664,0.00031,,
2.043333333333333,0.000282,,
2.044,0.000207,,
2.044666666666666,0.000188,,
2.045333333333333,0.000183,,
2.046,0.000205,,
2.0466666666666664,0.000205,,
2.047333333333333,0.000157,,
2.048,5.3e-05,,
2.048666666666666,-0.000106,,
2.049333333333333,-0.000259,,
2.05,-0.00041,,
2.0506666666666664,-0.000483,,
2.051333333333333,-0.000532,,
2.052,-0.000671,,
2.052666666666666,-0.000837,,
2.053333333333333,-0.000848,,
2.054,-0.00068,,
2.0546666666666664,-0.000507,,
2.055333333333333,-0.000126,,
2.056,0.000259,,
2.056666666666666,0.000394,,
2.057333333333333,0.00036,,
2.058,0.000221,,
2.0586666666666664,0.000144,,
2.059333333333333,0.000124,,
2.06,0.000103,,
2.060666666666666,0.000113,,
2.061333333333333,0.0002,,
2.062,0.000237,,
2.0626666666666664,0.000287,,
2.063333333333333,0.000372,,
2.064,0.000399,,
2.0646666666666667,0.000391,,
2.065333333333333,0.000387,,
2.066,0.000326,,
2.0666666666666664,0.000228,,
2.067333333333333,9.7e-05,,
2.068,-2.4e-05,,
2.0686666666666667,-0.000131,,
2.069333333333333,-0.000234,,
2.07,-0.000353,,
2.0706666666666664,-0.000489,,
2.071333333333333,-0.000593,,
2.072,-0.000645,,
2.0726666666666667,-0.000714,,
2.0733333333333333,-0.000762,,
2.074,-0.000737,,
2.0746666666666664,-0.000715,,
2.075333333333333,-0.000598,,
2.076,-0.000382,,
2.0766666666666667,-0.00024,,
2.0773333333333333,-0.000261,,
2.078,-0.000317,,
2.0786666666666664,-0.000326,,
2.079333333333333,-0.000363,,
2.08,-0.000309,,
2.0806666666666667,-0.00022,,
2.0813333333333333,-0.000151,,
2.082,-0.000107,,
2.0826666666666664,-6e-06,,
2.083333333333333,0.000172,,
2.084,0.00032,,
2.0846666666666667,0.000417,,
2.0853333333333333,0.000525,,
2.086,0.000704,,
2.0866666666666664,0.000831,,
2.087333333333333,0.000834,,
2.088,0.000763,,
2.0886666666666667,0.00068,,
2.0893333333333333,0.000551,,
2.09,0.000288,,
2.0906666666666665,2.5e-05,,
2.091333333333333,-0.000102,,
2.092,-0.000146,,
2.0926666666666667,-2.1e-05,,
2.0933333333333333,4.9e-05,,
2.094,5.3e-05,,
2.0946666666666665,0.000143,,
2.095333333333333,0.000301,,
2.096,0.000583,,
2.0966666666666667,0.000822,,
2.0973333333333333,0.000924,,
2.098,0.000929,,
2.0986666666666665,0.000886,,
2.099333333333333,0.000758,,
2.1,0.000644,,
2.1006666666666667,0.000586,,
2.1013333333333333,0.00052,,
2.102,0.000455,,
2.1026666666666665,0.00047,,
2.103333333333333,0.000557,,
2.104,0.000592,,
2.1046666666666667,0.000426,,
2.1053333333333333,0.000266,,
2.106,0.000223,,
2.1066666666666665,0.000163,,
2.107333333333333,9.3e-05,,
2.108,9e-06,,
2.1086666666666667,-9e-05,,
2.1093333333333333,-0.00021,,
2.11,-0.000285,,
2.1106666666666665,-0.000326,,
2.111333333333333,-0.000413,,
2.112,-0.000455,,
2.1126666666666667,-0.000377,,
2.1133333333333333,-0.000242,,
2.114,-0.000103,,
2.1146666666666665,5.5e-05,,
2.115333333333333,0.00018,,
2.116,0.000332,,
2.1166666666666667,0.000402,,
2.1173333333333333,0.000422,,
2.118,0.000418,,
2.1186666666666665,0.000402,,
2.119333333333333,0.000373,,
2.12,0.000333,,
2.1206666666666667,0.000307,,
2.1213333333333333,0.000432,,
2.122,0.000534,,
2.1226666666666665,0.00056,,
2.123333333333333,0.000596,,
2.124,0.000565,,
2.1246666666666667,0.000471,,
2.1253333333333333,0.000379,,
2.126,0.00037,,
2.1266666666666665,0.000326,,
2.127333333333333,0.000191,,
2.128,8.9e-05,,
2.1286666666666667,2.5e-05,,
2.1293333333333333,-0.000123,,
2.13,-0.000243,,
2.1306666666666665,-0.000303,,
2.131333333333333,-0.000292,,
2.132,-0.000295,,
2.1326666666666667,-0.000378,,
2.1333333333333333,-0.000446,,
2.134,-0.000418,,
2.1346666666666665,-0.000209,,
2.135333333333333,-2.8e-05,,
2.136,9e-05,,
2.1366666666666667,0.000134,,
2.1373333333333333,0.00019,,
2.138,0.000252,,
2.1386666666666665,0.000259,,
2.139333333333333,0.000293,,
2.14,0.000319,,
2.1406666666666667,0.000382,,
2.1413333333333333,0.000508,,
2.142,0.000584,,
2.1426666666666665,0.000589,,
2.143333333333333,0.000551,,
2.144,0.000514,,
2.1446666666666667,0.000526,,
2.1453333333333333,0.000531,,
2.146,0.00051,,
2.1466666666666665,0.000415,,
2.147333333333333,0.000318,,
2.148,0.000188,,
2.1486666666666667,6.4e-05,,
2.1493333333333333,3.4e-05,,
2.15,-2.8e-05,,
2.1506666666666665,-0.000145,,
2.151333333333333,-0.000228,,
2.152,-0.000301,,
2.1526666666666667,-0.000354,,
2.1533333333333333,-0.000385,,
2.154,-0.000372,,
2.1546666666666665,-0.000286,,
2.155333333333333,-0.000107,,
2.156,0.000132,,
2.1566666666666667,0.000194,,
2.1573333333333333,0.000208,,
2.158,0.000199,,
2.1586666666666665,0.000348,,
2.159333333333333,0.000484,,
2.16,0.000487,,
2.1606666666666667,0.000418,,
2.1613333333333333,0.000346,,
2.162,0.00031,,
2.1626666666666665,0.000377,,
2.163333333333333,0.000401,,
2.164,0.000366,,
2.1646666666666667,0.000364,,
2.1653333333333333,0.00035,,
2.166,0.00033,,
2.1666666666666665,0.000308,,
2.167333333333333,0.000247,,
2.168,0.000153,,
2.1686666666666667,8.6e-05,,
2.1693333333333333,-2e-06,,
2.17,-0.000104,,
2.1706666666666665,-0.000189,,
2.171333333333333,-0.000257,,
2.172,-0.000343,,
2.1726666666666667,-0.000452,,
2.1733333333333333,-0.000594,,
2.174,-0.000721,,
2.1746666666666665,-0.000703,,
2.175333333333333,-0.000488,,
2.176,-0.000137,,
2.1766666666666667,0.000112,,
2.1773333333333333,0.000322,,
2.178,0.000394,,
2.1786666666666665,0.000389,,
2.179333333333333,0.000423,,
2.18,0.000377,,
2.1806666666666668,0.000216,,
2.1813333333333333,8.1e-05,,
2.182,2.6e-05,,
2.1826666666666665,5.4e-05,,
2.183333333333333,8.7e-05,,
2.184,0.000104,,
2.1846666666666668,8.2e-05,,
2.1853333333333333,3.9e-05,,
2.186,-1.8e-05,,
2.1866666666666665,-8.6e-05,,
2.187333333333333,-0.000185,,
2.188,-0.000277,,
2.1886666666666668,-0.000341,,
2.1893333333333334,-0.000371,,
2.19,-0.000422,,
2.1906666666666665,-0.000486,,
2.191333333333333,-0.000509,,
2.192,-0.000543,,
2.1926666666666668,-0.00056,,
2.1933333333333334,-0.000507,,
2.194,-0.000388,,
2.1946666666666665,-0.000219,,
2.195333333333333,-7.5e-05,,
2.196,0.000102,,
2.1966666666666668,0.000192,,
2.1973333333333334,0.000232,,
2.198,0.000258,,
2.1986666666666665,0.000255,,
2.199333333333333,0.000272,,
2.2,0.000292,,
2.2006666666666668,0.000311,,
2.2013333333333334,0.000311,,
2.202,0.000308,,
2.2026666666666666,0.000343,,
2.203333333333333,0.000365,,
2.204,0.000382,,
2.2046666666666668,0.000391,,
2.2053333333333334,0.000381,,
2.206,0.000272,,
2.2066666666666666,0.000149,,
2.207333333333333,7e-05,,
2.208,-1e-05,,
2.208666666666667,-0.000138,,
2.2093333333333334,-0.000254,,
2.21,-0.000351,,
2.2106666666666666,-0.000431,,
2.211333333333333,-0.000488,,
2.212,-0.00056,,
2.212666666666667,-0.000568,,
2.2133333333333334,-0.000555,,
2.214,-0.000507,,
2.2146666666666666,-0.000405,,
2.215333333333333,-0.000243,,
2.216,-4.9e-05,,
2.216666666666667,2.5e-05,,
2.2173333333333334,6.7e-05,,
2.218,5.1e-05,,
2.2186666666666666,9.2e-05,,
2.219333333333333,0.000122,,
2.22,0.000114,,
2.220666666666667,0.000106,,
2.2213333333333334,8.1e-05,,
2.222,0.0001,,
2.2226666666666666,0.000213,,
2.223333333333333,0.000208,,
2.224,0.000181,,
2.224666666666667,0.000177,,
2.2253333333333334,0.000144,,
2.226,0.000116,,
2.2266666666666666,9e-05,,
2.227333333333333,-1e-06,,
2.228,-0.000174,,
2.228666666666667,-0.000276,,
2.2293333333333334,-0.000341,,
2.23,-0.000463,,
2.2306666666666666,-0.000657,,
2.231333333333333,-0.000803,,
2.232,-0.000847,,
2.232666666666667,-0.000725,,
2.2333333333333334,-0.000624,,
2.234,-0.000499,,
2.2346666666666666,-0.000219,,
2.235333333333333,-0.000109,,
2.236,-4.9e-05,,
2.236666666666667,-4.7e-05,,
2.2373333333333334,-0.000129,,
2.238,-6.4e-05,,
2.2386666666666666,4.5e-05,,
2.239333333333333,0.000109,,
2.24,0.000143,,
2.240666666666667,4.9e-05,,
2.2413333333333334,-0.000222,,
2.242,-0.00027,,
2.2426666666666666,-0.000251,,
2.243333333333333,-0.000187,,
2.244,0.000142,,
2.244666666666667,0.00067,,
2.2453333333333334,0.000799,,
2.246,0.000791,,
2.2466666666666666,0.000642,,
2.247333333333333,0.000366,,
2.248,8.5e-05,,
2.248666666666667,-0.00017,,
2.2493333333333334,-0.000234,,
2.25,-0.000254,,
2.2506666666666666,-0.00037,,
2.251333333333333,-0.000455,,
2.252,-0.00049,,
2.2526666666666664,-0.000469,,
2.2533333333333334,-0.000325,,
2.254,-3.6e-05,,
2.2546666666666666,7.1e-05,,
2.255333333333333,0.000125,,
2.256,0.000148,,
2.2566666666666664,0.000167,,
2.2573333333333334,0.000223,,
2.258,0.000258,,
2.2586666666666666,0.000264,,
2.259333333333333,0.000263,,
2.26,0.000271,,
2.2606666666666664,0.000283,,
2.2613333333333334,0.000319,,
2.262,0.000319,,
2.2626666666666666,0.000279,,
2.263333333333333,0.000238,,
2.264,0.000205,,
2.2646666666666664,0.00022,,
2.2653333333333334,0.000218,,
2.266,0.00021,,
2.2666666666666666,0.000126,,
2.267333333333333,-4.4e-05,,
2.268,-0.00021,,
2.2686666666666664,-0.00028,,
2.269333333333333,-0.000332,,
2.27,-0.000417,,
2.2706666666666666,-0.00051,,
2.271333333333333,-0.000527,,
2.272,-0.000569,,
2.2726666666666664,-0.000591,,
2.273333333333333,-0.000638,,
2.274,-0.000613,,
2.2746666666666666,-0.000493,,
2.275333333333333,-0.000317,,
2.276,-0.000126,,
2.2766666666666664,-5.8e-05,,
2.277333333333333,-4.1e-05,,
2.278,-2.7e-05,,
2.2786666666666666,0.0,,
2.279333333333333,2.3e-05,,
2.28,2.3e-05,,
2.2806666666666664,2.9e-05,,
2.281333333333333,1.8e-05,,
2.282,3.2e-05,,
2.2826666666666666,7.5e-05,,
2.283333333333333,0.000115,,
2.284,0.000114,,
2.2846666666666664,8.4e-05,,
2.285333333333333,8.5e-05,,
2.286,7.5e-05,,
2.286666666666666,-4e-06,,
2.287333333333333,-7.6e-05,,
2.288,-0.000216,,
2.2886666666666664,-0.000404,,
2.289333333333333,-0.000614,,
2.29,-0.000789,,
2.290666666666666,-0.000878,,
2.291333333333333,-0.000905,,
2.292,-0.00091,,
2.2926666666666664,-0.000915,,
2.293333333333333,-0.000912,,
2.294,-0.000915,,
2.294666666666666,-0.000911,,
2.295333333333333,-0.000751,,
2.296,-0.000507,,
2.2966666666666664,-0.000307,,
2.297333333333333,-0.000178,,
2.298,-0.000126,,
2.298666666666666,-0.000117,,
2.299333333333333,-7.5e-05,,
2.3,3e-06,,
2.3006666666666664,7.7e-05,,
2.301333333333333,0.000122,,
2.302,0.000172,,
2.302666666666666,0.000262,,
2.303333333333333,0.000319,,
2.304,0.000296,,
2.3046666666666664,0.000302,,
2.305333333333333,0.000315,,
2.306,0.000362,,
2.306666666666666,0.000418,,
2.307333333333333,0.000435,,
2.308,0.000359,,
2.3086666666666664,0.00019,,
2.309333333333333,3.4e-05,,
2.31,-4.3e-05,,
2.310666666666666,-0.000153,,
2.311333333333333,-0.000269,,
2.312,-0.000391,,
2.3126666666666664,-0.000427,,
2.313333333333333,-0.000441,,
2.314,-0.000448,,
2.3146666666666667,-0.00035,,
2.315333333333333,-0.000229,,
2.316,-7.6e-05,,
2.3166666666666664,-4.5e-05,,
2.317333333333333,-4.9e-05,,
2.318,-8.8e-05,,
2.3186666666666667,-0.000129,,
2.319333333333333,-8.1e-05,,
2.32,-4.1e-05,,
2.3206666666666664,1e-05,,
2.321333333333333,6e-06,,
2.322,-1.1e-05,,
2.3226666666666667,1.1e-05,,
2.3233333333333333,1.6e-05,,
2.324,-1.8e-05,,
2.3246666666666664,-9.7e-05,,
2.325333333333333,-0.000198,,
2.326,-0.00032,,
2.3266666666666667,-0.000543,,
2.3273333333333333,-0.000744,,
2.328,-0.000815,,
2.3286666666666664,-0.00078,,
2.329333333333333,-0.000617,,
2.33,-0.000386,,
2.3306666666666667,-0.000304,,
2.3313333333333333,-0.000303,,
2.332,-0.000316,,
2.3326666666666664,-0.000364,,
2.333333333333333,-0.000493,,
2.334,-0.000529,,
2.3346666666666667,-0.000447,,
2.3353333333333333,-0.000295,,
2.336,-0.000117,,
2.3366666666666664,-7.7e-05,,
2.337333333333333,-0.00017,,
2.338,-0.0002,,
2.3386666666666667,-0.000121,,
2.3393333333333333,5.1e-05,,
2.34,7.8e-05,,
2.3406666666666665,1.7e-05,,
2.341333333333333,-5e-06,,
2.342,7e-06,,
2.3426666666666667,-1.7e-05,,
2.3433333333333333,-8.7e-05,,
2.344,-0.000118,,
2.3446666666666665,-0.000198,,
2.345333333333333,-0.000292,,
2.346,-0.000389,,
2.3466666666666667,-0.000446,,
2.3473333333333333,-0.000406,,
2.348,-0.000243,,
2.3486666666666665,7e-06,,
2.349333333333333,1.2e-05,,
2.35,-0.000161,,
2.3506666666666667,-0.000357,,
2.3513333333333333,-0.000482,,
2.352,-0.000508,,
2.3526666666666665,-0.000486,,
2.353333333333333,-0.000452,,
2.354,-0.000383,,
2.3546666666666667,-0.000262,,
2.3553333333333333,-2.4e-05,,
2.356,0.0002,,
2.3566666666666665,0.000236,,
2.357333333333333,0.000212,,
2.358,0.000176,,
2.3586666666666667,0.000186,,
2.3593333333333333,0.000177,,
2.36,0.000199,,
2.3606666666666665,0.00021,,
2.361333333333333,0.000182,,
2.362,0.000137,,
2.3626666666666667,0.000102,,
2.3633333333333333,3.9e-05,,
2.364,-4.7e-05,,
2.3646666666666665,-8.7e-05,,
2.365333333333333,-5.9e-05,,
2.366,1.9e-05,,
2.3666666666666667,-7.8e-05,,
2.3673333333333333,-0.000265,,
2.368,-2.6e-05,,
2.3686666666666665,0.000145,,
2.369333333333333,0.000131,,
2.37,-6.8e-05,,
2.3706666666666667,-0.000306,,
2.3713333333333333,-0.000455,,
2.372,-0.000568,,
2.3726666666666665,-0.00064,,
2.373333333333333,-0.000663,,
2.374,-0.000681,,
2.3746666666666667,-0.000482,,
2.3753333333333333,-0.000116,,
2.376,0.000254,,
2.3766666666666665,0.000293,,
2.377333333333333,0.000253,,
2.378,0.000255,,
2.3786666666666667,0.000291,,
2.3793333333333333,0.000257,,
2.38,0.000193,,
2.3806666666666665,0.000146,,
2.381333333333333,7.5e-05,,
2.382,7.4e-05,,
2.3826666666666667,0.000111,,
2.3833333333333333,7.2e-05,,
2.384,3.2e-05,,
2.3846666666666665,3.2e-05,,
2.385333333333333,6.5e-05,,
2.386,0.000106,,
2.3866666666666667,7.3e-05,,
2.3873333333333333,2.8e-05,,
2.388,-8.4e-05,,
2.3886666666666665,-0.000252,,
2.389333333333333,-0.000295,,
2.39,-0.0003,,
2.3906666666666667,-0.000453,,
2.3913333333333333,-0.000648,,
2.392,-0.000795,,
2.3926666666666665,-0.000872,,
2.393333333333333,-0.000903,,
2.394,-0.000905,,
2.3946666666666667,-0.000794,,
2.3953333333333333,-0.000312,,
2.396,4.1e-05,,
2.3966666666666665,0.000152,,
2.397333333333333,0.000193,,
2.398,0.000264,,
2.3986666666666667,0.000224,,
2.3993333333333333,0.000133,,
2.4,0.000106,,
2.4006666666666665,0.000137,,
2.401333333333333,0.000236,,
2.402,0.000399,,
2.4026666666666667,0.000487,,
2.4033333333333333,0.000479,,
2.404,0.000389,,
2.4046666666666665,0.000318,,
2.405333333333333,0.00027,,
2.406,0.000222,,
2.4066666666666667,0.000158,,
2.4073333333333333,9.2e-05,,
2.408,4.7e-05,,
2.4086666666666665,-5.5e-05,,
2.409333333333333,-0.0002,,
2.41,-0.000292,,
2.4106666666666667,-0.000264,,
2.4113333333333333,-0.000326,,
2.412,-0.000386,,
2.4126666666666665,-0.000427,,
2.413333333333333,-0.000447,,
2.414,-0.000442,,
2.4146666666666667,-0.000355,,
2.4153333333333333,-0.000218,,
2.416,-5.8e-05,,
2.4166666666666665,6e-06,,
2.417333333333333,6.2e-05,,
2.418,9.7e-05,,
2.4186666666666667,9.5e-05,,
2.4193333333333333,0.000105,,
2.42,9e-05,,
2.4206666666666665,6.6e-05,,
2.421333333333333,3.6e-05,,
2.422,3.7e-05,,
2.4226666666666667,5.6e-05,,
2.4233333333333333,8e-05,,
2.424,0.00013,,
2.4246666666666665,0.000137,,
2.425333333333333,9.5e-05,,
2.426,1.7e-05,,
2.4266666666666667,-8.8e-05,,
2.4273333333333333,-0.000196,,
2.428,-0.000275,,
2.4286666666666665,-0.000281,,
2.429333333333333,-0.000304,,
2.43,-0.000396,,
2.4306666666666668,-0.000497,,
2.4313333333333333,-0.000566,,
2.432,-0.000607,,
2.4326666666666665,-0.000641,,
2.433333333333333,-0.000612,,
2.434,-0.000523,,
2.4346666666666668,-0.000399,,
2.4353333333333333,-0.000251,,
2.436,-0.000109,,
2.4366666666666665,-6.3e-05,,
2.437333333333333,-2.6e-05,,
2.438,-5.5e-05,,
2.4386666666666668,-5.1e-05,,
2.4393333333333334,5.3e-05,,
2.44,8.9e-05,,
2.4406666666666665,8e-05,,
2.441333333333333,4e-05,,
2.442,7.1e-05,,
2.4426666666666668,0.000138,,
2.4433333333333334,0.00017,,
2.444,0.000186,,
2.4446666666666665,0.000217,,
2.445333333333333,0.000165,,
2.446,9.4e-05,,
2.4466666666666668,2.7e-05,,
2.4473333333333334,-0.000125,,
2.448,-0.00028,,
2.4486666666666665,-0.000347,,
2.449333333333333,-0.00042,,
2.45,-0.000506,,
2.4506666666666668,-0.000522,,
2.4513333333333334,-0.000508,,
2.452,-0.000496,,
2.4526666666666666,-0.000536,,
2.453333333333333,-0.00056,,
2.454,-0.000504,,
2.4546666666666668,-0.000378,,
2.4553333333333334,-0.000234,,
2.456,-9.2e-05,,
2.4566666666666666,-5.1e-05,,
2.457333333333333,-5.6e-05,,
2.458,-0.000102,,
2.458666666666667,-8.2e-05,,
2.4593333333333334,1.4e-05,,
2.46,8.7e-05,,
2.4606666666666666,0.000106,,
2.461333333333333,8.9e-05,,
2.462,5.9e-05,,
2.462666666666667,1.8e-05,,
2.4633333333333334,-4.7e-05,,
2.464,-0.000115,,
2.4646666666666666,-5.7e-05,,
2.465333333333333,1.1e-05,,
2.466,3.6e-05,,
2.466666666666667,1e-05,,
2.4673333333333334,-8.4e-05,,
2.468,-0.000121,,
2.4686666666666666,-0.000187,,
2.469333333333333,-0.000273,,
2.47,-0.00036,,
2.470666666666667,-0.000499,,
2.4713333333333334,-0.000598,,
2.472,-0.00062,,
2.4726666666666666,-0.000642,,
2.473333333333333,-0.000671,,
2.474,-0.00061,,
2.474666666666667,-0.00049,,
2.4753333333333334,-0.000301,,
2.476,-0.00013,,
2.4766666666666666,-5.4e-05,,
2.477333333333333,1.5e-05,,
2.478,3.9e-05,,
2.478666666666667,5.6e-05,,
2.4793333333333334,7.5e-05,,
2.48,6.4e-05,,
2.4806666666666666,6.4e-05,,
2.481333333333333,9.1e-05,,
2.482,0.000154,,
2.482666666666667,0.000213,,
2.4833333333333334,0.000211,,
2.484,0.000236,,
2.4846666666666666,0.000244,,
2.485333333333333,0.000232,,
2.486,0.000204,,
2.486666666666667,0.000111,,
2.4873333333333334,-4.1e-05,,
2.488,-0.000172,,
2.4886666666666666,-0.000226,,
2.489333333333333,-0.000313,,
2.49,-0.000394,,
2.4906666666666664,-0.000449,,
2.4913333333333334,-0.000457,,
2.492,-0.000514,,
2.4926666666666666,-0.000573,,
2.493333333333333,-0.000577,,
2.494,-0.000425,,
2.4946666666666664,-0.000229,,
2.4953333333333334,-6.3e-05,,
2.496,5.9e-05,,
2.4966666666666666,0.000104,,
2.497333333333333,9.9e-05,,
2.498,4.5e-05,,
2.4986666666666664,7.8e-05,,
2.4993333333333334,0.000159,,
2.5,0.000108,,
2.5006666666666666,1e-05,,
2.501333333333333,-2e-05,,
2.502,3.4e-05,,
2.5026666666666664,4.8e-05,,
2.5033333333333334,6.7e-05,,
2.504,8.1e-05,,
2.5046666666666666,4.7e-05,,
2.505333333333333,5.2e-05,,
2.506,4.3e-05,,
2.5066666666666664,-4.3e-05,,
2.5073333333333334,-0.000174,,
2.508,-0.000273,,
2.5086666666666666,-0.000391,,
2.509333333333333,-0.000536,,
2.51,-0.000676,,
2.5106666666666664,-0.00079,,
2.5113333333333334,-0.000872,,
2.512,-0.000901,,
2.5126666666666666,-0.000872,,
2.513333333333333,-0.000774,,
2.514,-0.000551,,
2.5146666666666664,-0.000218,,
2.5153333333333334,-6.5e-05,,
2.516,7.7e-05,,
2.5166666666666666,0.000163,,
2.517333333333333,0.000188,,
2.518,0.000172,,
2.5186666666666664,0.00017,,
2.519333333333333,0.000193,,
2.52,0.000157,,
2.5206666666666666,8e-05,,
2.521333333333333,8.5e-05,,
2.522,0.000157,,
2.5226666666666664,0.000206,,
2.523333333333333,0.000212,,
2.524,0.000243,,
2.5246666666666666,0.0003,,
2.525333333333333,0.00036,,
2.526,0.000384,,
2.5266666666666664,0.000303,,
2.527333333333333,0.000169,,
2.528,-5e-06,,
2.5286666666666666,-0.000152,,
2.529333333333333,-0.000301,,
2.53,-0.000392,,
2.5306666666666664,-0.000477,,
2.531333333333333,-0.000566,,
2.532,-0.000605,,
2.5326666666666666,-0.000616,,
2.533333333333333,-0.000605,,
2.534,-0.000519,,
2.5346666666666664,-0.000356,,
2.535333333333333,-0.000132,,
2.536,3.9e-05,,
2.536666666666666,3.5e-05,,
2.537333333333333,1.2e-05,,
2.538,-2.7e-05,,
2.5386666666666664,-7e-05,,
2.539333333333333,-7.4e-05,,
2.54,-3e-05,,
2.540666666666666,9.5e-05,,
2.541333333333333,0.000202,,
2.542,0.000225,,
2.5426666666666664,0.000164,,
2.543333333333333,0.00016,,
2.544,0.000148,,
2.544666666666666,0.000148,,
2.545333333333333,0.00012,,
2.546,8.6e-05,,
2.5466666666666664,8e-06,,
2.547333333333333,-8.3e-05,,
2.548,-0.000189,,
2.548666666666666,-0.000306,,
2.549333333333333,-0.000417,,
2.55,-0.000478,,
2.5506666666666664,-0.000519,,
2.551333333333333,-0.000541,,
2.552,-0.000558,,
2.552666666666666,-0.000569,,
2.553333333333333,-0.000549,,
2.554,-0.000483,,
2.5546666666666664,-0.000352,,
2.555333333333333,-0.000167,,
2.556,-3e-05,,
2.556666666666666,-2e-06,,
2.557333333333333,-1e-05,,
2.558,-3.4e-05,,
2.5586666666666664,1.7e-05,,
2.559333333333333,8.3e-05,,
2.56,9.2e-05,,
2.560666666666666,0.000105,,
2.561333333333333,0.000144,,
2.562,0.000185,,
2.5626666666666664,0.000191,,
2.563333333333333,0.000161,,
2.564,0.000147,,
2.5646666666666667,9.9e-05,,
2.565333333333333,9.2e-05,,
2.566,3.4e-05,,
2.5666666666666664,-0.000102,,
2.567333333333333,-0.000242,,
2.568,-0.000323,,
2.5686666666666667,-0.000411,,
2.569333333333333,-0.000479,,
2.57,-0.000531,,
2.5706666666666664,-0.000457,,
2.571333333333333,-0.000463,,
2.572,-0.000524,,
2.5726666666666667,-0.000535,,
2.5733333333333333,-0.000485,,
2.574,-0.000414,,
2.5746666666666664,-0.000304,,
2.575333333333333,-0.000124,,
2.576,-2.6e-05,,
2.5766666666666667,-4e-05,,
2.5773333333333333,-4.5e-05,,
2.578,-6.2e-05,,
2.5786666666666664,-6.2e-05,,
2.579333333333333,-4.7e-05,,
2.58,6e-06,,
2.5806666666666667,9.2e-05,,
2.5813333333333333,0.000182,,
2.582,0.000232,,
2.5826666666666664,0.000216,,
2.583333333333333,0.000181,,
2.584,0.000136,,
2.5846666666666667,8.5e-05,,
2.5853333333333333,4e-05,,
2.586,-5.4e-05,,
2.5866666666666664,-0.000151,,
2.587333333333333,-0.00019,,
2.588,-0.000234,,
2.5886666666666667,-0.000231,,
2.5893333333333333,-0.000217,,
2.59,-0.000284,,
2.5906666666666665,-0.000365,,
2.591333333333333,-0.000479,,
2.592,-0.000555,,
2.5926666666666667,-0.000595,,
2.5933333333333333,-0.000556,,
2.594,-0.000477,,
2.5946666666666665,-0.00027,,
2.595333333333333,3.1e-05,,
2.596,0.000154,,
2.5966666666666667,0.000183,,
2.5973333333333333,0.00018,,
2.598,0.000192,,
2.5986666666666665,0.00019,,
2.599333333333333,0.000197,,
2.6,0.000174,,
2.6006666666666667,0.000179,,
2.6013333333333333,0.000164,,
2.602,0.000152,,
2.6026666666666665,9.8e-05,,
2.603333333333333,9.9e-05,,
2.604,0.000175,,
2.6046666666666667,0.000225,,
2.6053333333333333,0.000161,,
2.606,6.5e-05,,
2.6066666666666665,-1.4e-05,,
2.607333333333333,-5.1e-05,,
2.608,-0.000137,,
2.6086666666666667,-0.000218,,
2.6093333333333333,-0.000297,,
2.61,-0.000398,,
2.6106666666666665,-0.000485,,
2.611333333333333,-0.000558,,
2.612,-0.000575,,
2.6126666666666667,-0.000515,,
2.6133333333333333,-0.000438,,
2.614,-0.000336,,
2.6146666666666665,-0.000204,,
2.615333333333333,-1.3e-05,,
2.616,3.1e-05,,
2.6166666666666667,-1.1e-05,,
2.6173333333333333,-3.8e-05,,
2.618,-4.9e-05,,
2.6186666666666665,-5.9e-05,,
2.619333333333333,-0.000152,,
2.62,-0.000113,,
2.6206666666666667,0.000186,,
2.6213333333333333,0.000345,,
2.622,0.000355,,
2.6226666666666665,0.000304,,
2.623333333333333,0.000305,,
2.624,0.00033,,
2.6246666666666667,0.000302,,
2.6253333333333333,0.000202,,
2.626,8.9e-05,,
2.6266666666666665,-5e-06,,
2.627333333333333,-9.3e-05,,
2.628,-0.000135,,
2.6286666666666667,-0.000215,,
2.6293333333333333,-0.000347,,
2.63,-0.000472,,
2.6306666666666665,-0.000515,,
2.631333333333333,-0.000555,,
2.632,-0.000602,,
2.6326666666666667,-0.000594,,
2.6333333333333333,-0.000533,,
2.634,-0.000397,,
2.6346666666666665,-0.000272,,
2.635333333333333,-8.4e-05,,
2.636,5.9e-05,,
2.6366666666666667,8.9e-05,,
2.6373333333333333,0.000111,,
2.638,9.2e-05,,
2.6386666666666665,2.5e-05,,
2.639333333333333,2e-05,,
2.64,6.5e-05,,
2.6406666666666667,6.8e-05,,
2.6413333333333333,3.4e-05,,
2.642,5.9e-05,,
2.6426666666666665,7.2e-05,,
2.643333333333333,0.000111,,
2.644,0.000177,,
2.6446666666666667,0.000197,,
2.6453333333333333,0.000157,,
2.646,9.4e-05,,
2.6466666666666665,-6e-06,,
2.647333333333333,-0.000109,,
2.648,-0.000146,,
2.6486666666666667,-0.000192,,
2.6493333333333333,-0.000276,,
2.65,-0.000322,,
2.6506666666666665,-0.000358,,
2.651333333333333,-0.000496,,
2.652,-0.000605,,
2.6526666666666667,-0.000582,,
2.6533333333333333,-0.000508,,
2.654,-0.000418,,
2.6546666666666665,-0.000291,,
2.655333333333333,-0.000119,,
2.656,-4.3e-05,,
2.6566666666666667,-3.6e-05,,
2.6573333333333333,-4.2e-05,,
2.658,-1.9e-05,,
2.6586666666666665,1.7e-05,,
2.659333333333333,1e-05,,
2.66,-1.2e-05,,
2.6606666666666667,-1.2e-05,,
2.6613333333333333,-4.8e-05,,
2.662,-6.3e-05,,
2.6626666666666665,-4.5e-05,,
2.663333333333333,-2.9e-05,,
2.664,2e-06,,
2.6646666666666667,3.2e-05,,
2.6653333333333333,4.9e-05,,
2.666,4.7e-05,,
2.6666666666666665,-2.9e-05,,
2.667333333333333,-9.4e-05,,
2.668,-0.000141,,
2.6686666666666667,-0.000198,,
2.6693333333333333,-0.000261,,
2.67,-0.000306,,
2.6706666666666665,-0.000324,,
2.671333333333333,-0.000272,,
2.672,-0.000221,,
2.6726666666666667,-0.00024,,
2.6733333333333333,-0.000246,,
2.674,-0.000129,,
2.6746666666666665,-3.8e-05,,
2.675333333333333,8.5e-05,,
2.676,0.000123,,
2.6766666666666667,6.8e-05,,
2.6773333333333333,3.7e-05,,
2.678,-3e-06,,
2.6786666666666665,0.000122,,
2.679333333333333,0.000294,,
2.68,0.000366,,
2.6806666666666668,0.000373,,
2.6813333333333333,0.000305,,
2.682,0.000299,,
2.6826666666666665,0.000282,,
2.683333333333333,0.000271,,
2.684,0.000263,,
2.6846666666666668,0.000269,,
2.6853333333333333,0.000269,,
2.686,0.000145,,
2.6866666666666665,2e-05,,
2.687333333333333,-6.4e-05,,
2.688,-0.000162,,
2.6886666666666668,-0.000252,,
2.6893333333333334,-0.000362,,
2.69,-0.000491,,
2.6906666666666665,-0.000591,,
2.691333333333333,-0.000633,,
2.692,-0.000601,,
2.6926666666666668,-0.000659,,
2.6933333333333334,-0.000742,,
2.694,-0.00064,,
2.6946666666666665,-0.000432,,
2.695333333333333,-0.000151,,
2.696,-2.8e-05,,
2.6966666666666668,-5e-06,,
2.6973333333333334,8e-05,,
2.698,0.000136,,
2.6986666666666665,7.2e-05,,
2.699333333333333,8.3e-05,,
2.7,0.000163,,
2.7006666666666668,0.000245,,
2.7013333333333334,0.00024,,
2.702,0.000232,,
2.7026666666666666,0.000261,,
2.703333333333333,0.000299,,
2.704,0.000273,,
2.7046666666666668,0.000197,,
2.7053333333333334,0.00014,,
2.706,9.7e-05,,
2.7066666666666666,8.1e-05,,
2.707333333333333,1.8e-05,,
2.708,-0.000112,,
2.708666666666667,-0.000184,,
2.7093333333333334,-0.00025,,
2.71,-0.000325,,
2.7106666666666666,-0.000434,,
2.711333333333333,-0.000529,,
2.712,-0.000577,,
2.712666666666667,-0.000612,,
2.7133333333333334,-0.000551,,
2.714,-0.000406,,
2.7146666666666666,-0.000284,,
2.715333333333333,-0.00012,,
2.716,-7.2e-05,,
2.716666666666667,-7.4e-05,,
2.7173333333333334,-8.8e-05,,
2.718,-0.000101,,
2.7186666666666666,-0.000107,,
2.719333333333333,-4.5e-05,,
2.72,0.00011,,
2.720666666666667,0.000192,,
2.7213333333333334,0.000203,,
2.722,0.00027,,
2.7226666666666666,0.000307,,
2.723333333333333,0.00031,,
2.724,0.000272,,
2.724666666666667,0.000185,,
2.7253333333333334,0.000179,,
2.726,0.000185,,
2.7266666666666666,0.000128,,
2.727333333333333,-4e-06,,
2.728,-0.000116,,
2.728666666666667,-0.000216,,
2.7293333333333334,-0.000303,,
2.73,-0.000365,,
2.7306666666666666,-0.000411,,
2.731333333333333,-0.000439,,
2.732,-0.000478,,
2.7326666666666664,-0.000456,,
2.7333333333333334,-0.00044,,
2.734,-0.000403,,
2.7346666666666666,-0.000264,,
2.735333333333333,-5.1e-05,,
2.736,3e-06,,
2.7366666666666664,6e-06,,
2.7373333333333334,-4.1e-05,,
2.738,-6.5e-05,,
2.7386666666666666,-1e-05,,
2.739333333333333,4.5e-05,,
2.74,0.000129,,
2.7406666666666664,0.000184,,
2.7413333333333334,0.000175,,
2.742,0.000117,,
2.7426666666666666,2e-06,,
2.743333333333333,-2.2e-05,,
2.744,3e-05,,
2.7446666666666664,5.3e-05,,
2.7453333333333334,9e-05,,
2.746,0.000125,,
2.7466666666666666,0.000133,,
2.747333333333333,8.2e-05,,
2.748,-1.6e-05,,
2.7486666666666664,-0.000113,,
2.7493333333333334,-0.000225,,
2.75,-0.000331,,
2.7506666666666666,-0.000366,,
2.751333333333333,-0.000358,,
2.752,-0.000311,,
2.7526666666666664,-0.000223,,
2.7533333333333334,-0.000131,,
2.754,2.5e-05,,
2.7546666666666666,0.000186,,
2.755333333333333,0.000363,,
2.756,0.000371,,
2.7566666666666664,0.000379,,
2.7573333333333334,0.000343,,
2.758,0.000304,,
2.7586666666666666,0.000189,,
2.759333333333333,-0.0,,
2.76,-4.4e-05,,
2.7606666666666664,-4.7e-05,,
2.7613333333333334,-1.4e-05,,
2.762,9.8e-05,,
2.7626666666666666,4.5e-05,,
2.763333333333333,0.000125,,
2.764,0.00028,,
2.7646666666666664,0.000392,,
2.7653333333333334,0.00039,,
2.766,0.000316,,
2.7666666666666666,0.000169,,
2.767333333333333,3.3e-05,,
2.768,-0.000127,,
2.7686666666666664,-0.000198,,
2.769333333333333,-0.000242,,
2.77,-0.000329,,
2.7706666666666666,-0.000418,,
2.771333333333333,-0.00048,,
2.772,-0.000513,,
2.7726666666666664,-0.000484,,
2.773333333333333,-0.000393,,
2.774,-0.000243,,
2.7746666666666666,-0.000108,,
2.775333333333333,2.9e-05,,
2.776,1.9e-05,,
2.7766666666666664,5e-06,,
2.777333333333333,4e-05,,
2.778,4.7e-05,,
2.7786666666666666,3.6e-05,,
2.779333333333333,8.4e-05,,
2.78,0.000178,,
2.7806666666666664,0.000279,,
2.781333333333333,0.000226,,
2.782,0.000197,,
2.7826666666666666,0.000199,,
2.783333333333333,0.000105,,
2.784,8e-05,,
2.7846666666666664,0.000164,,
2.785333333333333,0.00018,,
2.786,0.000136,,
2.786666666666666,3.6e-05,,
2.787333333333333,-3.8e-05,,
2.788,-0.000105,,
2.7886666666666664,-0.000185,,
2.789333333333333,-0.000265,,
2.79,-0.000352,,
2.790666666666666,-0.000411,,
2.791333333333333,-0.000431,,
2.792,-0.000486,,
2.7926666666666664,-0.000475,,
2.793333333333333,-0.000466,,
2.794,-0.000294,,
2.794666666666666,-0.00016,,
2.795333333333333,-1.6e-05,,
2.796,3.2e-05,,
2.7966666666666664,-4e-06,,
2.797333333333333,-4.3e-05,,
2.798,-4e-05,,
2.798666666666666,-1.1e-05,,
2.799333333333333,-3e-06,,
2.8,-6.4e-05,,
2.8006666666666664,-9.1e-05,,
2.801333333333333,-5.8e-05,,
2.802,2.8e-05,,
2.802666666666666,3.2e-05,,
2.803333333333333,2.9e-05,,
2.804,6.4e-05,,
2.8046666666666664,2.1e-05,,
2.805333333333333,-2.9e-05,,
2.806,-7.1e-05,,
2.806666666666666,-2.7e-05,,
2.807333333333333,-3.5e-05,,
2.808,-0.000147,,
2.8086666666666664,-0.000264,,
2.809333333333333,-0.000326,,
2.81,-0.00033,,
2.810666666666666,-0.000316,,
2.811333333333333,-0.000408,,
2.812,-0.000435,,
2.8126666666666664,-0.000413,,
2.813333333333333,-0.000403,,
2.814,-0.000383,,
2.8146666666666667,-0.000361,,
2.815333333333333,-0.000221,,
2.816,-0.000122,,
2.8166666666666664,-3.7e-05,,
2.817333333333333,0.000137,,
2.818,0.000404,,
2.8186666666666667,0.00052,,
2.819333333333333,0.000422,,
2.82,0.000264,,
2.8206666666666664,0.000171,,
2.821333333333333,0.000186,,
2.822,0.00025,,
2.8226666666666667,0.000185,,
2.8233333333333333,0.000172,,
2.824,0.00013,,
2.8246666666666664,7.6e-05,,
2.825333333333333,0.0001,,
2.826,7.8e-05,,
2.8266666666666667,-3.7e-05,,
2.8273333333333333,-0.000152,,
2.828,-0.000195,,
2.8286666666666664,-0.000252,,
2.829333333333333,-0.000319,,
2.83,-0.000339,,
2.8306666666666667,-0.000366,,
2.8313333333333333,-0.000408,,
2.832,-0.000445,,
2.8326666666666664,-0.000527,,
2.833333333333333,-0.000508,,
2.834,-0.000398,,
2.8346666666666667,-0.000224,,
2.8353333333333333,-4e-05,,
2.836,4.8e-05,,
2.8366666666666664,0.00014,,
2.837333333333333,0.000165,,
2.838,0.000166,,
2.8386666666666667,0.000178,,
2.8393333333333333,0.000148,,
2.84,1e-06,,
2.8406666666666665,-5.5e-05,,
2.841333333333333,3.6e-05,,
2.842,0.000164,,
2.8426666666666667,0.000147,,
2.8433333333333333,0.000125,,
2.844,0.000181,,
2.8446666666666665,0.000224,,
2.845333333333333,0.000151,,
2.846,-4e-05,,
2.8466666666666667,-0.000126,,
2.8473333333333333,-0.000181,,
2.848,-0.00024,,
2.8486666666666665,-0.00024,,
2.849333333333333,-0.000214,,
2.85,-0.00024,,
2.8506666666666667,-0.000301,,
2.8513333333333333,-0.000412,,
2.852,-0.000511,,
2.8526666666666665,-0.000573,,
2.853333333333333,-0.000562,,
2.854,-0.00043,,
2.8546666666666667,-0.000287,,
2.8553333333333333,-0.000128,,
2.856,-9.9e-05,,
2.8566666666666665,-7.6e-05,,
2.857333333333333,-5.1e-05,,
2.858,-3.9e-05,,
2.8586666666666667,-5.1e-05,,
2.8593333333333333,-3.8e-05,,
2.86,1.3e-05,,
2.8606666666666665,5.2e-05,,
2.861333333333333,3.9e-05,,
2.862,4.8e-05,,
2.8626666666666667,3.1e-05,,
2.8633333333333333,1.1e-05,,
2.864,5.4e-05,,
2.8646666666666665,5.4e-05,,
2.865333333333333,-4.6e-05,,
2.866,-0.000115,,
2.8666666666666667,-0.000127,,
2.8673333333333333,-0.000102,,
2.868,-0.000163,,
2.8686666666666665,-0.000192,,
2.869333333333333,-0.000196,,
2.87,-0.000265,,
2.8706666666666667,-0.000373,,
2.8713333333333333,-0.000469,,
2.872,-0.000553,,
2.8726666666666665,-0.000565,,
2.873333333333333,-0.000458,,
2.874,-0.000293,,
2.8746666666666667,-8.7e-05,,
2.8753333333333333,0.000117,,
2.876,0.000175,,
2.8766666666666665,0.000189,,
2.877333333333333,0.000166,,
2.878,0.000114,,
2.8786666666666667,0.000175,,
2.8793333333333333,0.000236,,
2.88,0.000178,,
2.8806666666666665,6e-05,,
2.881333333333333,-1.3e-05,,
2.882,2.6e-05,,
2.8826666666666667,0.000138,,
2.8833333333333333,0.000166,,
2.884,0.000125,,
2.8846666666666665,4.8e-05,,
2.885333333333333,5e-06,,
2.886,-0.000144,,
2.8866666666666667,-0.000342,,
2.8873333333333333,-0.000418,,
2.888,-0.000425,,
2.8886666666666665,-0.000438,,
2.889333333333333,-0.000468,,
2.89,-0.000531,,
2.8906666666666667,-0.000551,,
2.8913333333333333,-0.000532,,
2.892,-0.000541,,
2.8926666666666665,-0.000602,,
2.893333333333333,-0.000645,,
2.894,-0.000599,,
2.8946666666666667,-0.00041,,
2.8953333333333333,-8.6e-05,,
2.896,4.5e-05,,
2.8966666666666665,1e-05,,
2.897333333333333,9.5e-05,,
2.898,0.000236,,
2.8986666666666667,0.000338,,
2.8993333333333333,0.000396,,
2.9,0.000383,,
2.9006666666666665,0.000338,,
2.901333333333333,0.000373,,
2.902,0.000429,,
2.9026666666666667,0.000337,,
2.9033333333333333,0.000225,,
2.904,0.000262,,
2.9046666666666665,0.000319,,
2.905333333333333,0.000362,,
2.906,0.000303,,
2.9066666666666667,0.000135,,
2.9073333333333333,-3e-05,,
2.908,-0.000138,,
2.9086666666666665,-0.000167,,
2.909333333333333,-0.000184,,
2.91,-0.000245,,
2.9106666666666667,-0.000344,,
2.9113333333333333,-0.000413,,
2.912,-0.000469,,
2.9126666666666665,-0.000549,,
2.913333333333333,-0.000439,,
2.914,-0.000254,,
2.9146666666666667,-9.4e-05,,
2.9153333333333333,2.1e-05,,
2.916,4.3e-05,,
2.9166666666666665,-1.1e-05,,
2.917333333333333,-0.000134,,
2.918,-0.000187,,
2.9186666666666667,-0.000135,,
2.9193333333333333,-0.00017,,
2.92,-0.000137,,
2.9206666666666665,-2e-05,,
2.921333333333333,4.4e-05,,
2.922,0.000238,,
2.9226666666666667,0.000305,,
2.9233333333333333,0.000205,,
2.924,0.000211,,
2.9246666666666665,0.000158,,
2.925333333333333,0.000174,,
2.926,0.000274,,
2.9266666666666667,0.000313,,
2.9273333333333333,0.000138,,
2.928,-0.000168,,
2.9286666666666665,-0.000264,,
2.929333333333333,-0.00036,,
2.93,-0.000522,,
2.9306666666666668,-0.000588,,
2.9313333333333333,-0.00064,,
2.932,-0.000577,,
2.9326666666666665,-0.000512,,
2.933333333333333,-0.00047,,
2.934,-0.000302,,
2.9346666666666668,-0.000113,,
2.9353333333333333,-1.8e-05,,
2.936,-6.5e-05,,
2.9366666666666665,-2.8e-05,,
2.937333333333333,7.5e-05,,
2.938,0.000167,,
2.9386666666666668,0.000145,,
2.9393333333333334,0.000147,,
2.94,0.000183,,
2.9406666666666665,0.000196,,
2.941333333333333,0.000278,,
2.942,0.000351,,
2.9426666666666668,0.000356,,
2.9433333333333334,0.000318,,
2.944,0.000299,,
2.9446666666666665,0.000329,,
2.945333333333333,0.000351,,
2.946,0.000286,,
2.9466666666666668,0.000155,,
2.9473333333333334,7e-06,,
2.948,-0.000121,,
2.9486666666666665,-0.000187,,
2.949333333333333,-0.000277,,
2.95,-0.000375,,
2.9506666666666668,-0.000541,,
2.9513333333333334,-0.000658,,
2.952,-0.000621,,
2.9526666666666666,-0.000594,,
2.953333333333333,-0.000572,,
2.954,-0.000502,,
2.9546666666666668,-0.000385,,
2.9553333333333334,-0.000247,,
2.956,-0.000276,,
2.9566666666666666,-0.000257,,
2.957333333333333,-0.000157,,
2.958,-0.000132,,
2.958666666666667,-9.5e-05,,
2.9593333333333334,-0.000156,,
2.96,-1.8e-05,,
2.9606666666666666,0.000139,,
2.961333333333333,0.000186,,
2.962,0.000152,,
2.962666666666667,0.000152,,
2.9633333333333334,0.000227,,
2.964,0.000146,,
2.9646666666666666,3.1e-05,,
2.965333333333333,-7.1e-05,,
2.966,-0.000143,,
2.966666666666667,-0.000281,,
2.9673333333333334,-0.000326,,
2.968,-0.000285,,
2.9686666666666666,-0.000282,,
2.969333333333333,-0.000268,,
2.97,-0.00025,,
2.970666666666667,-0.000407,,
2.9713333333333334,-0.000596,,
2.972,-0.000763,,
2.9726666666666666,-0.000864,,
2.973333333333333,-0.000783,,
2.974,-0.00047,,
2.9746666666666663,-8.3e-05,,
2.9753333333333334,0.000138,,
2.976,0.000161,,
2.9766666666666666,0.000228,,
2.977333333333333,0.000119,,
2.978,9e-05,,
2.9786666666666664,0.000175,,
2.9793333333333334,0.000139,,
2.98,0.000142,,
2.9806666666666666,0.000207,,
2.981333333333333,0.000377,,
2.982,0.000445,,
2.9826666666666664,0.00038,,
2.9833333333333334,0.000447,,
2.984,0.000314,,
2.9846666666666666,3.6e-05,,
2.985333333333333,1.5e-05,,
2.986,0.000108,,
2.9866666666666664,8.5e-05,,
2.9873333333333334,-0.000199,,
2.988,-0.0003,,
2.9886666666666666,-0.000243,,
2.989333333333333,-0.000187,,
2.99,-4.7e-05,,
2.9906666666666664,-4.9e-05,,
2.9913333333333334,-0.00022,,
2.992,-0.000568,,
2.9926666666666666,-0.000695,,
2.993333333333333,-0.000317,,
2.994,-6.9e-05,,
2.9946666666666664,-0.000164,,
2.9953333333333334,-0.000314,,
2.996,1.4e-05,,
2.9966666666666666,0.000108,,
2.997333333333333,0.00025,,
2.998,0.00053,,
2.9986666666666664,0.000603,,
2.9993333333333334,0.000369,,
3.0,3.1e-05,,
3.0006666666666666,-0.000163,,
3.001333333333333,-6.8e-05,,
3.002,-0.000118,,
3.0026666666666664,-0.000201,,
3.0033333333333334,-0.000392,,
3.004,-0.000595,,
3.0046666666666666,-0.000676,,
3.005333333333333,-0.000484,,
3.006,-0.000294,,
3.0066666666666664,-0.000316,,
3.0073333333333334,-0.000658,,
3.008,-0.000844,,
3.0086666666666666,-0.000894,,
3.009333333333333,-0.00091,,
3.01,-0.00091,,
3.0106666666666664,-0.000912,,
3.0113333333333334,-0.00048,,
3.012,-0.000417,,
3.0126666666666666,-0.000762,,
3.013333333333333,-0.000616,,
3.014,-0.000303,,
3.0146666666666664,0.000152,,
3.0153333333333334,0.000517,,
3.016,0.000445,,
3.0166666666666666,0.000293,,
3.017333333333333,0.000199,,
3.018,7.6e-05,,
3.0186666666666664,5.9e-05,,
3.019333333333333,-2.6e-05,,
3.02,-0.000291,,
3.0206666666666666,-0.000122,,
3.021333333333333,0.000294,,
3.022,0.000594,,
3.0226666666666664,0.000316,,
3.023333333333333,-0.000132,,
3.024,-0.000427,,
3.0246666666666666,-0.00072,,
3.025333333333333,-0.000668,,
3.026,-0.000425,,
3.0266666666666664,-0.000662,,
3.027333333333333,-0.00085,,
3.028,-0.000899,,
3.0286666666666666,-0.000908,,
3.029333333333333,-0.00091,,
3.03,-0.000908,,
3.0306666666666664,-0.000912,,
3.031333333333333,-0.000842,,
3.032,-0.000883,,
3.0326666666666666,-0.000908,,
3.033333333333333,-0.00091,,
3.034,-0.000914,,
3.0346666666666664,-0.000915,,
3.035333333333333,0.000129,,
3.036,0.000725,,
3.036666666666666,0.001061,,
3.037333333333333,0.000902,,
3.038,0.000168,,
3.0386666666666664,-0.000555,,
3.039333333333333,-0.00082,,
3.04,-0.000889,,
3.040666666666666,-0.000905,,
3.041333333333333,-0.000913,,
3.042,-0.00056,,
3.0426666666666664,-0.000412,,
3.043333333333333,-0.000287,,
3.044,-0.000505,,
3.044666666666666,-0.000573,,
3.045333333333333,-0.000724,,
3.046,-0.000866,,
3.0466666666666664,-0.0009,,
3.047333333333333,-0.000906,,
3.048,-0.000561,,
3.048666666666666,-0.000165,,
3.049333333333333,-7.1e-05,,
3.05,-0.000636,,
3.0506666666666664,-0.000843,,
3.051333333333333,-0.000839,,
3.052,-0.000598,,
3.052666666666666,-0.000342,,
3.053333333333333,0.000119,,
3.054,0.000274,,
3.0546666666666664,-5.4e-05,,
3.055333333333333,-0.000372,,
3.056,-0.000482,,
3.056666666666666,-0.000378,,
3.057333333333333,0.000258,,
3.058,0.00062,,
3.0586666666666664,0.0002,,
3.059333333333333,-1.3e-05,,
3.06,0.000409,,
3.060666666666666,0.000681,,
3.061333333333333,0.000307,,
3.062,-0.000481,,
3.0626666666666664,-0.000801,,
3.063333333333333,-0.000883,,
3.064,-0.000903,,
3.0646666666666667,-0.000913,,
3.065333333333333,-8.2e-05,,
3.066,0.000948,,
3.0666666666666664,0.000314,,
3.067333333333333,-0.000576,,
3.068,-0.000825,,
3.0686666666666667,-0.000892,,
3.069333333333333,-0.000442,,
3.07,0.000342,,
3.0706666666666664,0.000985,,
3.071333333333333,0.001526,,
3.072,0.001585,,
3.0726666666666667,0.001147,,
3.0733333333333333,0.000681,,
3.074,0.000248,,
3.0746666666666664,0.000354,,
3.075333333333333,0.000862,,
3.076,0.001429,,
3.0766666666666667,0.001585,,
3.0773333333333333,0.001585,,
3.078,0.001585,,
3.0786666666666664,0.001585,,
3.079333333333333,0.001585,,
3.08,0.001585,,
3.0806666666666667,0.00097,,
3.0813333333333333,0.00025,,
3.082,-0.00051,,
3.0826666666666664,-0.000797,,
3.083333333333333,-0.00028,,
3.084,0.000185,,
3.0846666666666667,0.000449,,
3.0853333333333333,0.000603,,
3.086,0.00075,,
